655
653
651
647
647
645
645
643
643
641
643
643
643
645
645
647
649
651
653
655
657
659
663
667
669
673
677
687
693
699
707
715
731
741
749
759
769
781
791
811
821
829
839
847
863
869
875
879
883
885
887
889
889
887
885
883
879
875
871
867
863
857
853
849
845
841
839
835
829
827
825
823
821
821
821
821
823
823
827
831
835
841
847
859
871
891
883
873
895
917
899
881
973
1037
1101
1083
1067
1287
1437
1587
1763
1939
2289
2565
2841
3057
3275
3337
3399
3159
2883
2609
2255
1901
1205
927
649
465
281
185
89
31
169
305
307
309
365
405
445
491
537
625
637
647
673
699
723
747
789
799
807
819
831
853
863
871
879
885
891
897
905
909
911
915
917
921
923
923
925
927
929
931
933
935
937
939
941
947
951
953
959
963
973
979
985
993
999
1009
1017
1035
1047
1057
1069
1079
1103
1115
1129
1141
1155
1181
1193
1207
1219
1233
1245
1257
1279
1289
1301
1311
1321
1341
1351
1361
1369
1379
1389
1399
1419
1429
1439
1449
1461
1481
1491
1501
1511
1521
1529
1539
1555
1561
1569
1573
1579
1587
1587
1589
1589
1589
1585
1581
1577
1571
1565
1557
1551
1531
1519
1509
1495
1483
1455
1439
1423
1421
1421
1401
1383
1343
1321
1301
1279
1259
1215
1193
1173
1151
1129
1085
1065
1045
1025
1003
983
963
927
913
897
883
869
845
835
825
817
809
803
795
785
781
777
773
769
763
761
757
755
751
745
741
737
733
729
725
719
711
707
701
697
693
687
685
683
683
681
681
681
683
685
687
691
695
703
707
711
715
719
727
731
733
735
737
739
741
741
741
739
737
735
729
727
723
719
715
711
705
697
693
687
683
679
671
667
663
659
655
653
649
641
639
635
631
627
619
615
611
607
603
593
589
583
579
573
569
565
557
553
549
547
545
543
543
543
545
547
551
553
563
569
575
583
589
605
613
621
631
639
655
663
669
677
683
689
693
701
705
707
709
709
709
709
707
705
701
699
695
685
681
675
671
665
653
647
639
633
627
617
613
607
603
599
597
593
591
591
591
595
597
605
613
619
627
635
645
655
677
689
701
713
725
749
761
773
783
793
813
821
829
837
843
849
855
865
869
873
877
879
883
887
889
891
893
895
897
899
901
901
901
901
901
899
897
895
891
887
883
873
867
861
855
849
837
831
825
821
815
805
803
799
799
797
797
795
797
801
803
807
809
819
823
827
833
839
845
851
863
871
877
885
891
905
915
923
935
947
967
965
961
979
997
989
981
1051
1101
1151
1123
1095
1271
1399
1527
1673
1821
1995
2171
2501
2719
2939
3173
3407
3425
3149
2875
2721
2567
1845
1481
1119
827
533
355
177
75
127
177
343
509
555
599
643
693
743
787
829
893
877
861
883
903
939
953
965
975
985
999
1009
1017
1023
1029
1033
1037
1043
1043
1043
1043
1041
1037
1033
1029
1025
1021
1015
1009
997
991
985
981
975
967
965
961
959
957
959
959
965
971
975
983
989
1007
1019
1029
1041
1053
1095
1109
1123
1139
1155
1171
1205
1221
1237
1253
1271
1303
1319
1337
1353
1369
1385
1401
1433
1449
1465
1481
1497
1529
1545
1561
1577
1593
1623
1639
1655
1669
1683
1697
1711
1735
1747
1759
1767
1777
1791
1795
1801
1801
1803
1801
1799
1789
1781
1773
1761
1749
1777
1757
1737
1713
1689
1633
1611
1591
1551
1511
1471
1433
1359
1325
1293
1263
1235
1219
1195
1171
1149
1127
1105
1085
1049
1029
1009
991
971
933
913
893
873
851
811
791
769
755
739
725
711
687
677
667
659
651
641
637
633
633
631
631
629
633
635
637
641
643
649
653
657
661
665
671
675
685
691
695
701
707
719
727
733
741
747
761
769
775
783
789
797
803
815
819
823
827
831
835
837
837
837
835
835
833
827
823
819
815
811
803
799
795
791
785
777
775
771
767
763
761
759
755
753
751
751
749
749
749
749
751
751
753
755
761
765
767
771
775
785
791
797
803
809
821
829
835
841
847
853
859
871
875
879
883
887
891
893
893
893
893
891
889
883
879
875
871
865
853
847
841
835
827
813
807
799
793
785
779
773
759
753
747
743
737
727
723
719
715
711
709
705
703
703
701
701
701
703
705
707
711
713
717
719
727
733
737
741
745
755
759
763
767
771
779
783
787
791
793
797
799
803
805
807
809
811
815
817
817
819
821
823
825
831
833
835
839
841
849
853
855
859
863
869
873
875
877
879
881
883
883
883
883
883
881
877
875
871
867
863
861
857
849
845
841
839
835
831
831
829
829
827
829
831
833
837
839
845
849
859
867
873
881
889
909
919
927
941
953
971
987
981
997
1013
1039
1065
1045
1089
1135
1199
1263
1235
1347
1459
1603
1747
1909
2073
2363
2477
2593
2901
3211
3095
3017
2941
2865
2791
2439
2089
1265
945
625
405
183
5
21
35
207
379
391
403
479
529
577
627
675
757
755
753
777
801
843
849
853
863
873
881
887
901
907
913
917
921
929
933
935
939
943
947
951
963
969
975
981
987
1003
1011
1017
1025
1031
1043
1049
1055
1059
1063
1067
1069
1071
1073
1073
1073
1073
1071
1071
1069
1069
1069
1069
1069
1073
1077
1079
1083
1087
1099
1107
1115
1123
1133
1153
1165
1177
1187
1199
1211
1225
1249
1261
1273
1285
1299
1321
1333
1345
1355
1365
1375
1385
1401
1407
1415
1419
1425
1431
1431
1433
1431
1429
1419
1411
1403
1391
1381
1367
1355
1325
1327
1329
1307
1285
1239
1215
1193
1169
1145
1121
1099
1057
1035
1013
993
973
933
915
897
879
861
843
825
791
771
749
735
719
689
675
661
649
637
613
603
591
583
573
565
557
543
539
533
529
525
521
521
519
519
519
521
521
525
527
529
533
535
541
545
547
549
551
555
557
559
561
561
561
561
561
561
561
561
559
557
557
555
555
553
553
551
549
549
547
547
545
543
543
541
541
541
539
539
539
539
539
539
537
537
537
537
537
535
533
531
529
527
525
523
519
511
507
503
499
495
485
481
475
471
467
459
457
453
451
449
449
447
447
449
451
453
455
461
467
471
475
479
485
491
501
507
513
519
523
533
537
541
545
547
551
553
555
555
555
555
555
553
551
549
547
545
541
539
535
533
531
529
525
521
521
519
517
515
513
513
511
511
509
507
505
503
503
501
501
499
497
497
495
495
495
497
501
503
507
509
515
519
533
541
549
559
569
591
603
613
627
639
651
663
687
699
709
719
729
745
753
761
767
771
781
785
787
791
793
797
799
805
809
811
817
821
829
835
841
847
851
857
863
873
877
881
883
885
887
885
883
881
877
865
857
849
841
831
821
809
785
775
763
751
739
717
707
695
687
677
669
661
647
643
637
633
627
621
621
619
619
617
619
621
625
631
635
641
645
659
673
685
699
711
699
723
745
731
717
759
801
923
909
893
997
1101
1377
1539
1703
1853
2005
2133
2261
2909
2875
2841
2785
2731
2639
2303
1969
1555
1141
317
111
-96
-188
-280
-224
-170
215
227
239
277
313
407
451
495
527
557
559
559
629
649
667
691
715
757
777
795
815
833
861
875
887
899
909
919
929
945
951
957
961
965
971
975
977
979
981
983
983
985
987
987
989
991
995
999
1001
1005
1009
1019
1025
1031
1039
1045
1053
1061
1091
1103
1117
1131
1161
1157
1153
1171
1191
1213
1237
1287
1313
1339
1365
1391
1461
1495
1531
1563
1595
1607
1621
1671
1693
1717
1737
1757
1795
1807
1821
1835
1849
1873
1883
1893
1899
1907
1913
1919
1923
1923
1925
1921
1919
1909
1901
1893
1881
1871
1857
1843
1813
1815
1817
1795
1773
1727
1701
1677
1653
1629
1581
1557
1533
1511
1489
1467
1447
1407
1387
1369
1349
1331
1295
1275
1257
1237
1217
1197
1177
1135
1115
1095
1075
1055
1019
1005
991
979
965
945
937
929
923
917
915
911
907
907
907
909
911
917
921
923
927
931
935
937
945
949
951
955
957
961
963
965
967
967
969
969
969
969
969
969
967
965
963
961
957
953
945
939
933
927
919
911
903
883
873
863
851
839
815
805
793
781
769
759
747
725
715
705
697
687
671
665
657
651
645
633
629
623
619
613
611
607
601
599
597
599
599
601
605
609
615
621
629
637
655
667
677
689
701
727
739
751
763
775
797
807
815
823
829
835
839
843
843
841
839
837
829
823
817
811
803
797
789
773
767
759
753
747
737
733
729
727
725
721
721
721
723
723
725
725
727
729
731
733
733
733
735
735
735
733
733
733
731
731
729
729
729
731
733
733
737
739
747
753
757
763
769
775
781
795
803
811
819
825
839
847
853
859
865
871
877
889
895
899
905
911
923
931
937
945
953
961
969
989
999
1009
1021
1033
1057
1069
1093
1105
1131
1143
1155
1165
1177
1187
1197
1213
1219
1225
1229
1235
1239
1239
1241
1239
1237
1233
1231
1223
1217
1211
1205
1199
1187
1181
1175
1169
1165
1159
1157
1157
1157
1159
1161
1163
1175
1187
1199
1211
1223
1207
1231
1257
1245
1235
1279
1323
1439
1431
1423
1541
1661
1923
2053
2183
2289
2395
2819
2847
2877
2799
2721
2649
2579
1905
1499
1093
757
421
-30
-96
-164
-100
-38
123
283
305
345
383
431
477
559
587
615
605
593
617
631
643
653
661
667
671
675
679
681
683
683
685
685
683
683
683
683
681
683
685
685
687
689
697
701
705
711
715
723
729
741
749
757
765
771
787
795
803
811
819
837
845
853
863
871
881
889
909
919
929
941
951
973
985
995
1007
1019
1031
1043
1069
1091
1103
1115
1139
1149
1161
1171
1181
1203
1211
1221
1229
1239
1247
1255
1269
1275
1283
1289
1297
1307
1313
1319
1323
1327
1331
1335
1341
1343
1345
1345
1347
1343
1339
1337
1331
1327
1311
1301
1291
1279
1267
1253
1239
1205
1205
1205
1181
1159
1111
1089
1067
1045
1021
1001
979
953
939
925
913
899
877
867
857
849
841
825
819
811
805
797
791
783
771
765
759
753
747
735
731
725
721
717
713
709
703
703
701
701
699
701
703
703
705
705
707
709
713
715
717
719
719
721
721
721
721
719
717
715
713
711
709
707
705
701
701
699
697
695
693
693
693
693
691
693
693
693
693
693
695
695
695
695
695
695
695
693
693
691
691
689
687
685
681
681
679
677
675
671
669
667
665
661
659
657
653
651
649
647
645
641
641
639
637
635
633
633
631
631
631
631
631
633
633
633
635
635
635
637
637
637
635
633
631
627
625
621
617
613
603
599
593
587
581
571
567
563
561
557
555
551
551
553
553
555
557
565
571
575
581
585
591
597
607
613
617
623
627
635
639
641
645
647
651
653
659
663
667
673
677
691
701
709
721
731
757
773
787
803
819
823
825
871
895
917
941
963
999
1015
1029
1043
1055
1067
1077
1093
1099
1105
1107
1111
1115
1115
1115
1113
1111
1105
1099
1095
1089
1083
1077
1071
1057
1049
1039
1031
1021
1001
991
979
969
959
949
937
915
905
893
885
875
857
851
843
837
831
823
821
817
817
817
819
819
825
831
835
843
849
865
877
887
899
911
923
935
963
963
961
981
1001
1049
1073
1097
1091
1085
1157
1207
1257
1321
1385
1395
1407
1617
1741
1867
1999
2133
2385
2607
2829
2941
3053
3063
3073
2825
2697
2571
2147
1723
1015
759
501
387
271
287
303
653
651
647
677
707
797
845
891
931
971
981
1007
1033
1057
1089
1099
1125
1133
1143
1151
1159
1169
1171
1175
1175
1175
1173
1173
1165
1161
1157
1151
1147
1137
1131
1125
1119
1115
1105
1099
1095
1091
1089
1085
1083
1079
1083
1085
1087
1091
1097
1101
1107
1121
1129
1139
1149
1159
1183
1195
1209
1223
1239
1271
1273
1275
1295
1315
1335
1357
1399
1421
1443
1465
1489
1533
1553
1575
1597
1619
1639
1659
1697
1715
1733
1747
1761
1787
1797
1809
1817
1825
1837
1841
1845
1845
1847
1845
1843
1835
1827
1821
1811
1801
1777
1763
1749
1733
1719
1717
1717
1677
1655
1635
1613
1593
1549
1527
1505
1483
1461
1439
1419
1379
1359
1341
1323
1307
1277
1263
1249
1237
1225
1205
1195
1187
1179
1173
1167
1161
1151
1147
1145
1143
1141
1139
1137
1137
1137
1137
1137
1139
1141
1141
1141
1141
1143
1143
1143
1143
1141
1141
1139
1137
1135
1133
1131
1129
1127
1121
1117
1115
1113
1111
1107
1105
1103
1103
1103
1103
1103
1103
1105
1107
1109
1111
1119
1121
1125
1129
1133
1141
1143
1147
1149
1153
1155
1157
1157
1157
1157
1155
1153
1147
1143
1139
1133
1129
1123
1119
1107
1101
1097
1091
1087
1079
1077
1073
1071
1067
1065
1065
1063
1065
1065
1067
1067
1071
1073
1075
1079
1083
1085
1089
1091
1095
1097
1099
1105
1107
1109
1111
1115
1121
1125
1129
1131
1135
1139
1145
1155
1161
1167
1173
1181
1195
1201
1209
1217
1225
1241
1249
1259
1267
1275
1283
1293
1313
1323
1333
1343
1353
1375
1387
1399
1411
1423
1435
1449
1473
1485
1499
1511
1523
1547
1557
1569
1577
1587
1601
1607
1613
1615
1619
1621
1623
1623
1621
1619
1615
1613
1605
1601
1597
1591
1587
1581
1577
1567
1561
1557
1551
1547
1539
1535
1531
1525
1521
1515
1511
1507
1503
1499
1495
1491
1485
1481
1477
1473
1471
1463
1459
1455
1451
1447
1441
1437
1427
1419
1413
1405
1399
1385
1375
1367
1357
1349
1331
1321
1311
1301
1291
1281
1271
1253
1245
1237
1229
1221
1207
1201
1195
1189
1185
1179
1175
1169
1165
1161
1157
1155
1151
1149
1147
1145
1143
1141
1141
1141
1143
1145
1147
1149
1155
1159
1165
1175
1185
1205
1197
1191
1209
1227
1217
1207
1283
1335
1387
1377
1367
1533
1649
1767
1899
2033
2169
2305
2485
2753
3021
3087
3155
3051
3009
2969
2609
2249
1369
969
569
399
227
169
109
257
397
537
555
573
651
701
749
791
833
865
895
903
931
957
981
1005
1031
1045
1059
1069
1079
1097
1103
1111
1115
1119
1121
1123
1125
1123
1123
1121
1119
1113
1109
1107
1103
1101
1097
1095
1091
1089
1087
1085
1085
1087
1089
1091
1093
1097
1105
1111
1117
1125
1133
1141
1149
1171
1183
1195
1207
1221
1249
1265
1281
1283
1287
1305
1325
1363
1383
1403
1423
1445
1487
1507
1529
1549
1571
1591
1613
1653
1671
1691
1707
1725
1755
1769
1783
1795
1807
1829
1837
1847
1855
1863
1869
1875
1885
1887
1889
1889
1891
1889
1885
1881
1875
1869
1861
1853
1833
1819
1807
1789
1773
1785
1763
1741
1715
1691
1663
1627
1591
1553
1515
1475
1437
1365
1329
1295
1263
1233
1215
1191
1167
1147
1127
1109
1091
1063
1049
1035
1021
1005
979
967
953
941
929
905
893
881
869
857
847
835
815
805
795
787
779
765
759
753
751
747
745
743
743
745
745
749
751
761
767
771
779
785
799
807
813
821
827
835
841
855
861
867
875
881
891
897
903
909
913
917
921
931
935
937
941
943
949
951
951
953
953
953
953
949
947
945
943
939
931
927
923
919
913
901
897
891
885
879
875
869
857
853
847
843
837
829
825
821
817
813
811
807
801
799
795
793
789
785
783
781
779
777
773
771
769
769
767
765
763
761
759
757
755
753
749
747
745
743
739
737
733
725
723
719
715
711
701
697
693
689
683
673
669
663
659
653
649
645
635
631
627
623
619
613
611
607
605
603
601
599
599
599
599
601
601
605
607
609
613
617
625
631
637
643
649
657
663
679
687
695
705
713
733
743
753
763
773
785
795
815
825
833
841
849
863
867
871
875
877
877
877
873
869
865
859
851
833
823
811
799
785
757
743
727
713
697
681
665
635
621
605
591
575
549
537
525
515
503
493
483
467
461
455
451
445
439
439
437
437
437
441
445
447
453
457
463
469
481
491
499
511
523
545
545
543
563
581
573
565
631
679
727
705
683
851
969
1085
1223
1363
1695
1829
1963
2189
2417
2649
2883
2601
2459
2317
2175
2035
1153
729
303
63
-178
-308
-438
-416
-320
-224
-142
-62
-22
13
49
85
121
173
169
165
183
201
219
237
273
287
299
311
323
347
359
371
383
395
407
417
437
449
459
471
481
501
511
521
531
541
551
561
579
589
597
607
615
629
637
643
651
657
667
673
677
683
687
691
695
703
707
711
715
719
729
735
741
747
753
763
771
789
801
811
823
835
861
877
891
907
921
955
961
967
987
1005
1025
1043
1101
1123
1137
1153
1181
1193
1205
1215
1227
1235
1245
1259
1263
1269
1273
1277
1279
1279
1279
1277
1277
1269
1265
1261
1255
1249
1241
1235
1217
1207
1197
1185
1173
1145
1129
1115
1099
1083
1083
1083
1043
1021
997
975
951
903
885
865
851
835
807
797
787
779
771
765
759
753
753
751
751
751
753
755
755
757
757
757
757
753
749
745
741
735
719
711
701
691
681
671
659
635
623
611
601
589
567
557
547
539
531
515
509
503
499
495
491
487
481
481
479
477
475
475
475
475
477
477
479
479
481
483
485
489
491
497
501
505
509
513
521
525
529
533
537
541
545
553
557
559
561
563
567
569
571
571
571
571
571
569
569
567
565
563
561
559
557
555
553
551
551
549
549
547
549
549
549
551
553
555
557
563
567
571
575
579
585
589
601
609
615
621
627
643
651
659
667
675
691
699
707
715
721
729
735
747
751
755
759
763
767
767
767
765
763
761
757
747
741
735
729
721
705
697
689
681
673
667
659
645
639
633
629
623
617
615
611
611
609
609
611
611
613
615
617
619
625
629
633
639
643
653
659
665
671
677
685
693
707
717
725
735
743
759
769
777
785
793
809
815
821
827
831
835
837
839
839
837
835
831
821
815
809
801
791
783
773
751
741
729
717
705
681
671
659
649
637
617
609
601
595
589
585
579
573
575
575
579
581
587
595
603
615
625
617
609
651
673
693
683
673
745
795
843
909
975
973
1189
1325
1461
1617
1773
2093
2215
2339
2601
2863
3075
2929
2783
2643
2503
2339
2177
1465
1123
783
539
295
73
87
99
259
419
411
403
443
477
511
543
575
625
617
609
625
639
663
675
685
695
703
711
717
733
741
747
755
761
775
783
789
797
803
809
815
831
839
845
853
859
873
881
889
897
903
919
927
933
941
947
955
961
975
981
987
993
999
1011
1017
1023
1029
1035
1041
1045
1055
1061
1065
1071
1077
1085
1091
1097
1103
1109
1123
1129
1137
1145
1153
1163
1173
1193
1205
1217
1229
1243
1271
1287
1303
1319
1335
1339
1345
1385
1405
1425
1449
1473
1505
1519
1533
1545
1557
1575
1581
1587
1589
1593
1593
1593
1585
1577
1571
1561
1551
1525
1509
1493
1493
1495
1473
1451
1405
1381
1359
1335
1311
1265
1243
1221
1199
1177
1155
1135
1091
1073
1053
1033
1011
971
953
933
913
893
863
849
835
823
809
799
787
769
763
755
751
745
737
735
733
733
731
733
733
735
739
741
745
747
755
761
765
771
775
783
789
793
797
801
805
809
815
817
817
819
819
819
817
815
813
809
807
803
793
789
785
781
777
769
767
763
761
759
757
757
757
759
759
761
763
767
771
773
775
777
781
781
781
781
781
779
777
769
765
761
755
749
737
731
723
717
709
697
691
685
681
675
671
667
661
661
659
659
657
657
659
659
661
661
663
665
669
671
673
675
677
681
683
685
687
689
691
691
695
697
699
701
701
705
707
707
709
709
711
713
713
715
715
717
717
719
721
721
723
723
723
725
725
727
729
731
731
735
739
741
745
747
753
757
761
767
771
779
785
789
795
799
805
809
819
823
827
831
835
843
847
849
853
855
857
859
861
863
865
867
867
867
869
869
869
869
869
869
869
869
867
867
865
863
863
861
859
857
851
849
845
841
837
833
827
815
809
803
797
789
773
765
755
747
737
719
711
701
691
681
673
665
649
641
633
627
621
611
607
603
601
599
599
597
597
601
603
609
613
621
629
635
649
661
673
685
675
697
719
703
687
769
829
889
875
861
1073
1211
1349
1513
1677
1849
2021
2337
2611
2887
3015
3143
3153
2879
2607
2455
2303
1939
1575
729
383
37
-104
-246
-324
-242
-160
-12
133
187
233
279
381
483
475
467
523
511
497
517
535
561
569
575
583
591
599
607
625
635
643
653
663
683
695
705
717
729
755
769
781
795
807
821
833
859
871
883
895
907
927
937
947
957
965
973
981
997
1005
1013
1021
1029
1045
1055
1063
1073
1101
1111
1123
1133
1145
1157
1169
1193
1205
1219
1231
1245
1269
1281
1295
1307
1319
1331
1345
1369
1381
1395
1407
1419
1445
1457
1471
1483
1497
1509
1523
1549
1561
1573
1585
1597
1619
1627
1637
1645
1653
1663
1667
1671
1673
1675
1673
1673
1667
1661
1655
1647
1639
1621
1609
1597
1583
1569
1553
1539
1539
1519
1501
1481
1463
1421
1399
1377
1353
1331
1283
1259
1237
1213
1191
1167
1145
1103
1085
1067
1055
1041
1015
1005
993
985
975
969
961
953
951
947
947
947
949
951
953
957
961
969
973
977
981
985
989
993
999
1001
1003
1005
1007
1007
1007
1005
1005
1003
1001
997
991
987
983
979
975
967
963
957
953
949
941
937
931
929
925
921
917
909
907
903
899
895
887
883
879
875
871
867
861
853
847
841
837
831
821
815
809
805
799
793
787
777
771
765
761
755
741
735
729
723
715
697
689
679
669
659
647
635
611
597
583
569
553
521
505
487
471
455
439
421
389
375
359
345
331
309
299
289
281
273
265
263
259
261
261
265
267
277
285
293
303
311
331
343
353
365
375
385
395
415
425
433
441
447
459
463
465
467
469
471
471
469
467
465
461
457
449
445
439
435
429
419
415
409
405
399
395
389
379
375
369
365
361
353
349
345
341
337
331
329
327
327
325
325
323
323
325
327
329
331
337
343
347
353
357
363
369
379
385
391
397
403
411
415
417
419
421
421
419
415
411
405
399
393
375
365
355
343
331
307
295
283
271
257
245
233
211
203
193
185
175
161
155
149
145
141
139
137
137
139
139
143
145
153
159
165
177
187
209
205
199
219
237
227
217
291
345
397
389
381
543
659
775
927
1079
1257
1437
1819
2063
2307
2561
2815
3105
3079
3055
2851
2649
1969
1559
1151
827
503
271
37
-170
-168
-166
-32
101
75
89
103
115
125
147
167
211
221
231
245
257
281
295
307
319
331
353
365
375
387
399
411
421
445
457
469
481
491
515
527
537
549
559
569
579
599
609
617
627
635
651
659
665
673
679
687
693
705
711
717
723
729
741
747
753
759
765
775
781
787
793
799
807
813
827
835
841
851
859
875
885
895
905
915
925
935
959
971
983
995
1007
1033
1047
1061
1075
1087
1115
1129
1143
1157
1171
1185
1201
1229
1241
1255
1267
1281
1305
1313
1323
1331
1339
1343
1349
1355
1353
1353
1349
1345
1329
1319
1309
1295
1281
1297
1275
1253
1229
1205
1179
1155
1101
1075
1047
1021
993
941
917
891
867
843
823
801
759
741
723
709
695
667
655
643
633
623
607
603
597
593
589
589
589
591
595
599
605
611
627
637
647
657
667
679
689
711
723
733
743
753
769
777
783
789
795
799
801
807
807
807
807
807
803
801
799
797
795
791
789
787
785
783
783
781
779
779
779
779
779
781
783
785
787
789
791
793
799
803
807
811
813
821
825
829
835
839
847
853
857
863
867
871
875
883
887
889
891
893
895
897
897
897
895
893
891
885
881
877
873
869
859
855
851
847
841
833
831
827
825
821
819
815
813
813
811
811
811
811
813
813
815
815
817
819
823
825
827
831
833
839
843
845
847
849
855
859
861
863
865
869
871
875
877
879
881
883
887
889
891
893
895
899
901
905
909
911
913
915
921
923
923
925
927
927
927
927
925
923
921
919
913
909
905
901
895
887
883
877
873
869
867
863
859
859
859
861
861
867
873
877
883
889
897
905
925
935
945
955
965
987
997
1007
1017
1025
1041
1049
1055
1061
1065
1069
1071
1075
1075
1073
1071
1067
1057
1051
1045
1037
1029
1019
1009
987
975
963
951
939
911
899
885
873
859
833
823
811
801
791
783
775
765
761
755
755
755
763
769
775
787
799
791
783
757
791
825
877
927
901
987
1073
1187
1303
1591
1753
1917
2055
2193
2425
2657
3059
2983
2907
2813
2721
2517
2119
1723
1247
773
417
61
-156
-166
-176
-74
25
283
317
351
399
447
495
543
619
641
663
643
621
649
661
671
679
687
695
699
701
707
713
717
721
729
733
737
743
747
757
763
769
777
783
791
799
817
827
835
845
853
873
883
893
903
911
931
939
947
955
963
971
977
989
995
999
1003
1007
1013
1015
1017
1019
1019
1019
1019
1019
1019
1019
1019
1019
1019
1021
1023
1025
1027
1031
1035
1039
1045
1049
1055
1059
1073
1079
1083
1089
1097
1111
1117
1125
1131
1139
1145
1153
1167
1173
1181
1187
1195
1209
1215
1221
1227
1233
1241
1243
1247
1247
1249
1247
1247
1239
1231
1225
1213
1201
1233
1213
1195
1171
1147
1135
1123
1043
1003
961
921
881
807
773
739
709
679
653
625
599
577
553
533
513
477
463
447
433
419
393
383
371
361
351
343
335
323
319
315
313
311
311
313
315
319
323
329
335
351
361
369
379
389
409
421
431
443
453
473
483
493
503
511
521
529
545
553
561
569
577
591
599
607
617
625
635
643
663
675
685
695
705
727
739
751
763
773
793
805
815
825
835
845
855
873
883
891
901
909
927
937
947
957
965
975
983
1003
1013
1021
1031
1041
1059
1067
1075
1089
1103
1107
1113
1117
1123
1125
1129
1133
1133
1135
1135
1135
1133
1133
1133
1131
1131
1129
1129
1129
1129
1129
1129
1129
1129
1129
1131
1131
1133
1133
1135
1135
1135
1135
1133
1133
1131
1129
1129
1127
1125
1123
1121
1121
1121
1121
1121
1123
1129
1131
1135
1139
1145
1157
1163
1169
1175
1183
1189
1197
1213
1219
1225
1231
1237
1245
1247
1251
1253
1255
1255
1253
1253
1251
1249
1247
1245
1239
1237
1235
1233
1233
1231
1231
1233
1235
1239
1243
1247
1259
1265
1273
1281
1289
1305
1313
1321
1329
1337
1351
1355
1361
1365
1369
1371
1373
1375
1373
1373
1371
1371
1365
1363
1361
1359
1357
1355
1353
1349
1349
1349
1349
1349
1351
1351
1353
1353
1355
1359
1359
1361
1363
1365
1367
1371
1379
1379
1381
1385
1391
1411
1421
1431
1421
1413
1431
1451
1401
1445
1489
1551
1613
1601
1707
1815
1953
2091
2251
2411
2699
2817
2937
3251
3567
3481
3415
3351
3293
3237
2529
2099
1669
1249
831
603
373
129
151
171
285
397
687
815
941
995
1047
1107
1169
1113
1143
1173
1165
1159
1173
1179
1185
1185
1187
1193
1193
1193
1193
1195
1193
1193
1191
1189
1189
1187
1185
1183
1181
1181
1181
1181
1181
1181
1181
1181
1183
1185
1187
1191
1193
1197
1199
1203
1213
1217
1223
1229
1235
1243
1251
1269
1279
1289
1301
1313
1339
1351
1365
1379
1395
1409
1425
1457
1471
1487
1501
1517
1545
1557
1571
1583
1597
1617
1627
1637
1645
1655
1663
1671
1687
1693
1701
1707
1715
1731
1737
1745
1753
1763
1771
1779
1797
1807
1817
1825
1835
1851
1859
1867
1873
1879
1883
1889
1895
1895
1895
1893
1893
1883
1875
1869
1859
1851
1827
1813
1801
1785
1769
1753
1737
1725
1705
1685
1665
1645
1605
1585
1565
1545
1525
1505
1487
1451
1431
1413
1395
1377
1343
1319
1297
1281
1265
1235
1221
1207
1195
1183
1171
1161
1141
1131
1123
1117
1111
1099
1095
1093
1089
1087
1085
1083
1083
1083
1083
1083
1083
1085
1085
1087
1089
1091
1095
1097
1099
1101
1105
1107
1111
1117
1121
1125
1129
1133
1141
1145
1149
1153
1159
1161
1165
1173
1175
1177
1177
1179
1181
1179
1177
1173
1171
1163
1157
1151
1143
1135
1125
1115
1093
1071
1059
1045
1017
1003
987
973
957
943
929
899
887
873
861
849
827
819
809
801
793
789
783
777
775
773
773
773
775
779
781
785
787
793
797
799
803
805
807
809
811
811
809
807
805
799
795
789
785
779
773
767
755
749
743
737
731
719
715
711
707
703
695
693
691
689
687
685
683
681
681
679
679
677
673
673
671
671
669
669
669
667
669
669
671
673
677
681
685
691
695
707
715
721
729
737
745
753
767
775
781
787
793
803
807
809
811
813
813
811
807
803
799
793
787
769
759
749
739
727
701
687
671
657
641
625
607
575
559
541
525
509
477
463
449
437
423
413
401
383
377
369
363
357
353
353
351
353
353
357
361
371
377
383
393
401
419
433
447
445
443
489
483
475
511
547
541
533
671
757
843
941
1039
1275
1415
1557
1713
1871
2007
2143
2609
2801
2993
2941
2891
2755
2687
2621
2273
1927
1101
753
405
153
-100
-208
-316
-288
-126
35
27
17
61
97
131
167
201
229
257
261
283
303
323
343
377
395
413
427
439
467
481
493
505
517
529
541
563
573
583
595
605
625
635
643
653
663
673
681
699
707
715
723
731
745
753
759
765
771
785
791
797
803
807
813
819
831
837
843
851
857
873
883
891
901
911
923
933
959
973
987
1003
1017
1017
1035
1053
1073
1093
1115
1137
1183
1207
1231
1255
1279
1325
1347
1369
1389
1411
1431
1443
1457
1467
1479
1487
1495
1507
1509
1513
1515
1517
1515
1513
1511
1507
1503
1497
1491
1479
1469
1461
1451
1443
1419
1405
1393
1379
1365
1333
1335
1339
1319
1301
1279
1257
1209
1183
1159
1133
1107
1057
1033
1007
985
961
953
945
919
909
897
889
881
871
869
865
865
865
865
867
869
873
875
879
883
889
893
897
901
905
911
915
919
923
927
931
933
941
945
949
953
955
963
967
969
973
977
983
987
989
991
993
997
999
1003
1007
1009
1011
1013
1019
1023
1025
1029
1031
1035
1037
1045
1049
1053
1057
1061
1069
1075
1079
1085
1089
1095
1103
1107
1113
1117
1121
1129
1131
1135
1137
1141
1143
1143
1145
1143
1143
1141
1139
1131
1125
1121
1113
1107
1091
1083
1077
1069
1059
1051
1041
1023
1015
1007
999
991
975
969
961
955
949
937
931
925
921
915
909
903
893
887
881
877
871
861
857
853
849
845
843
839
835
835
833
833
831
831
831
829
829
827
823
821
817
811
805
799
791
771
761
749
737
723
695
681
665
651
635
621
607
581
571
559
549
539
523
519
513
509
505
501
501
499
501
501
503
505
511
515
519
523
527
537
543
547
553
559
565
571
583
589
595
603
609
621
627
631
637
641
645
647
651
653
653
653
653
649
647
645
641
637
629
623
617
613
607
601
595
583
577
569
563
555
541
535
527
519
511
505
497
485
479
473
469
465
463
461
459
461
463
479
491
501
487
471
493
515
483
529
573
635
697
711
805
897
1019
1139
1287
1437
1767
1905
2045
2299
2553
2939
2853
2767
2675
2585
2371
2007
1643
1207
773
423
73
-216
-274
-332
-288
-246
-14
-2
9
17
25
47
67
119
143
165
167
169
191
201
211
221
229
245
253
261
269
275
285
293
311
321
331
343
353
379
393
407
423
437
453
467
499
515
529
545
561
591
605
619
633
647
661
673
697
709
719
731
741
761
771
781
791
799
819
829
837
847
855
865
875
893
903
913
925
935
957
969
981
993
1005
1019
1033
1061
1075
1089
1105
1121
1155
1161
1167
1185
1203
1241
1259
1279
1297
1317
1337
1357
1395
1415
1435
1449
1465
1491
1503
1515
1523
1533
1539
1547
1555
1555
1557
1553
1551
1541
1533
1525
1513
1501
1473
1479
1485
1463
1443
1419
1397
1345
1319
1293
1267
1243
1177
1145
1113
1093
1073
1047
1021
973
951
927
907
885
859
845
829
817
805
785
779
771
765
759
757
753
751
751
751
753
755
759
763
765
769
773
777
779
785
787
789
791
791
793
793
791
789
787
785
781
775
771
765
761
755
743
739
733
727
721
709
705
699
695
691
687
681
675
673
671
669
667
667
667
667
669
669
673
675
681
685
689
695
699
709
715
719
725
731
743
749
755
761
767
773
777
787
791
793
797
799
803
805
805
805
805
803
801
795
791
787
783
777
767
761
753
745
737
721
713
705
697
687
679
669
651
643
633
625
617
601
595
587
581
573
569
563
555
553
549
549
547
545
547
547
549
551
557
561
563
567
569
573
575
581
585
587
589
591
593
595
597
597
597
599
599
601
601
601
603
603
605
607
609
611
613
615
617
623
627
629
633
637
643
647
651
655
657
665
669
673
677
681
687
691
701
707
711
717
721
731
737
743
747
751
757
761
769
771
773
775
777
777
777
777
775
773
767
763
757
753
747
743
737
725
719
713
707
701
691
687
683
681
679
677
675
677
681
683
687
691
707
715
723
735
747
779
795
811
809
805
831
855
861
903
943
999
1053
1035
1113
1191
1305
1419
1551
1685
2009
2141
2275
2501
2729
3171
3035
2899
2773
2647
2349
1991
1633
1239
847
515
183
-96
-140
-186
73
331
255
409
561
615
667
721
773
667
663
659
679
699
693
693
691
685
679
679
677
675
673
669
667
665
659
659
657
657
657
659
663
665
669
673
679
683
695
703
709
717
725
741
749
757
765
771
779
787
799
805
811
817
821
829
833
837
841
843
849
853
855
859
863
867
871
879
885
891
899
905
923
933
941
953
963
975
987
1011
1025
1037
1051
1065
1089
1101
1115
1127
1139
1159
1169
1179
1187
1195
1201
1207
1217
1219
1223
1225
1229
1231
1231
1233
1233
1233
1231
1231
1229
1227
1225
1221
1219
1213
1207
1201
1193
1187
1173
1161
1151
1137
1123
1131
1141
1101
1077
1053
1051
1047
969
927
883
837
791
747
701
611
569
527
489
451
385
357
329
329
327
307
285
267
257
245
237
229
217
213
207
205
201
199
199
199
201
201
205
207
213
219
223
229
233
247
255
261
269
277
285
293
311
321
329
339
349
365
373
381
389
395
407
411
415
419
421
423
423
423
423
421
419
415
409
407
403
399
395
393
389
385
383
381
381
379
381
383
383
385
387
393
397
401
407
413
419
423
437
445
451
459
467
485
493
501
511
519
529
537
555
563
571
579
587
601
607
613
619
625
635
639
643
647
649
651
653
657
659
659
661
661
661
661
661
661
661
661
659
655
653
651
649
647
641
639
635
633
629
625
621
615
611
607
605
603
597
597
595
597
597
599
603
605
611
615
623
629
643
653
661
671
679
699
711
721
731
741
751
759
777
785
793
799
805
817
823
827
833
837
845
849
851
855
859
863
867
875
881
885
891
895
903
909
913
917
921
925
929
933
935
935
935
935
933
931
927
923
919
909
903
897
891
883
877
869
855
849
843
837
829
817
813
807
803
797
793
787
777
773
767
763
757
747
741
735
729
723
713
709
703
699
695
691
685
681
679
677
683
687
659
675
691
665
637
683
727
685
767
847
961
1073
1357
1521
1685
1853
2023
2153
2283
2875
2973
3071
2907
2745
2665
2381
2097
1661
1227
377
143
-90
-194
-298
-234
-170
169
357
543
595
647
757
767
775
753
731
749
767
799
809
819
825
829
837
843
847
851
853
855
855
853
853
851
849
847
841
839
835
833
829
825
823
821
821
821
823
823
829
835
839
845
851
867
877
887
899
909
935
949
961
977
991
1007
1021
1051
1067
1095
1109
1135
1147
1161
1171
1183
1193
1203
1221
1229
1237
1243
1251
1263
1269
1275
1281
1287
1301
1309
1317
1325
1335
1345
1355
1379
1391
1403
1415
1429
1457
1471
1485
1497
1511
1523
1537
1561
1571
1583
1591
1601
1613
1617
1623
1625
1627
1627
1627
1621
1615
1611
1603
1595
1573
1559
1547
1531
1515
1525
1503
1481
1457
1433
1407
1381
1343
1307
1271
1233
1197
1125
1111
1099
1075
1051
1029
1007
965
947
929
915
899
869
855
841
829
815
793
783
773
765
755
747
739
725
721
715
711
705
699
697
693
691
689
689
687
685
685
685
685
685
683
683
683
683
681
679
677
675
675
673
671
669
663
661
659
657
653
649
647
643
641
637
635
633
629
627
625
625
623
619
619
619
619
617
617
617
617
617
615
615
615
611
609
607
605
601
593
589
583
577
571
565
557
543
535
527
519
511
497
493
487
483
477
475
473
471
473
475
479
483
495
503
509
517
525
545
555
563
573
583
591
599
615
621
627
633
637
643
645
645
645
645
643
639
633
629
623
619
613
601
595
589
583
577
567
563
557
553
549
547
543
539
539
537
539
539
541
543
545
549
551
555
559
569
575
579
585
591
603
611
617
625
631
645
653
659
667
673
681
687
703
711
717
725
731
745
751
757
763
769
775
781
791
795
797
801
803
805
805
805
805
803
797
793
789
785
781
775
769
759
755
749
745
739
733
731
727
727
725
725
723
725
729
731
735
739
749
755
761
769
777
785
793
813
825
837
851
863
893
907
921
919
917
955
977
999
1027
1053
1079
1103
1111
1149
1187
1237
1287
1421
1409
1397
1501
1607
1747
1889
2225
2373
2521
2641
2761
3483
3409
3335
3241
3147
2947
2533
2119
1647
1175
815
453
95
111
125
263
401
577
601
623
667
711
755
799
861
851
841
861
881
911
925
939
949
957
973
981
989
997
1003
1009
1015
1025
1031
1037
1043
1047
1059
1067
1073
1089
1099
1109
1131
1143
1157
1171
1187
1183
1201
1221
1243
1265
1311
1335
1359
1383
1409
1435
1461
1513
1537
1561
1585
1611
1655
1677
1699
1719
1739
1757
1775
1807
1821
1837
1849
1863
1889
1899
1911
1921
1931
1939
1947
1963
1969
1977
1983
1989
1999
2003
2009
2011
2015
2021
2023
2025
2025
2027
2027
2027
2025
2023
2021
2015
2011
1999
1989
1981
1971
1961
1949
1937
1907
1911
1917
1895
1875
1829
1803
1779
1763
1747
1681
1645
1609
1573
1537
1501
1465
1395
1361
1327
1295
1265
1207
1191
1175
1149
1125
1103
1035
1015
993
973
953
911
891
869
849
827
783
761
739
717
693
671
647
601
579
555
535
513
473
459
443
429
413
401
387
365
357
347
339
331
321
317
311
309
307
305
305
305
305
305
307
309
313
317
319
323
325
331
335
337
341
343
345
347
351
351
351
351
349
345
341
337
333
327
321
313
297
287
277
267
257
235
225
213
201
189
169
159
149
141
131
123
115
103
99
93
91
87
83
83
83
83
83
85
87
91
95
97
101
103
109
113
115
119
123
129
133
137
141
143
147
151
157
161
165
169
173
181
185
189
195
199
203
207
217
223
229
235
239
249
255
261
267
271
281
287
291
295
297
301
303
309
311
311
313
313
313
313
311
311
311
311
311
313
315
317
321
325
333
339
345
353
361
379
389
397
409
419
431
441
463
475
487
499
509
531
541
551
561
571
581
589
609
617
625
633
641
657
665
671
677
683
687
691
697
699
699
699
699
693
689
683
677
671
653
645
635
625
615
605
593
575
567
557
551
543
533
531
527
527
527
529
531
541
549
555
565
573
595
607
619
633
647
677
691
705
723
739
755
769
779
797
815
841
867
863
905
945
935
925
991
1057
1239
1359
1479
1625
1771
2095
2253
2411
2649
2887
3217
3281
3345
3147
2951
2871
2791
2195
1845
1497
1201
907
507
423
337
343
349
475
599
655
651
645
681
717
789
821
853
859
863
907
927
947
965
983
1001
1017
1057
1073
1089
1103
1119
1149
1163
1179
1191
1205
1219
1233
1257
1269
1281
1293
1305
1327
1337
1347
1357
1369
1379
1389
1407
1417
1427
1437
1447
1467
1475
1485
1495
1505
1523
1531
1539
1547
1557
1563
1571
1585
1591
1599
1605
1611
1623
1629
1635
1641
1649
1655
1663
1679
1687
1695
1705
1715
1737
1749
1761
1773
1787
1815
1829
1845
1859
1875
1891
1907
1937
1953
1969
1983
1999
2027
2039
2053
2065
2077
2085
2095
2109
2113
2117
2117
2119
2115
2109
2105
2097
2089
2063
2073
2085
2063
2043
2017
1991
1985
1947
1909
1867
1825
1731
1681
1633
1583
1535
1487
1441
1353
1313
1273
1237
1203
1143
1139
1137
1115
1095
1077
1067
1055
1047
1037
1031
1023
1011
1007
1001
997
993
987
983
979
977
973
969
965
955
951
947
943
937
927
923
919
915
911
911
909
907
909
911
915
917
929
937
943
951
959
977
987
995
1005
1013
1021
1029
1045
1053
1059
1067
1073
1083
1089
1095
1101
1109
1115
1121
1137
1145
1155
1165
1175
1199
1211
1225
1239
1253
1281
1295
1309
1323
1337
1351
1365
1389
1399
1411
1419
1429
1443
1447
1453
1455
1459
1461
1463
1463
1461
1461
1459
1457
1451
1447
1445
1441
1437
1427
1421
1417
1411
1407
1401
1395
1383
1377
1371
1363
1357
1341
1333
1325
1317
1311
1303
1295
1281
1275
1269
1265
1261
1255
1253
1251
1251
1253
1257
1261
1265
1269
1275
1281
1289
1301
1307
1315
1321
1329
1341
1345
1351
1355
1359
1361
1365
1369
1371
1373
1373
1375
1379
1381
1383
1385
1387
1389
1393
1401
1405
1411
1417
1423
1435
1441
1449
1457
1465
1479
1487
1495
1501
1509
1515
1523
1539
1545
1553
1559
1567
1581
1589
1597
1605
1613
1621
1629
1647
1655
1665
1673
1683
1701
1709
1719
1727
1735
1749
1755
1761
1765
1771
1773
1777
1779
1779
1779
1777
1775
1767
1761
1755
1747
1741
1733
1725
1707
1697
1689
1679
1671
1655
1647
1639
1633
1627
1615
1611
1607
1603
1601
1599
1599
1601
1603
1607
1611
1615
1629
1635
1643
1653
1663
1677
1691
1721
1717
1715
1737
1759
1753
1791
1831
1883
1937
1939
2013
2087
2193
2299
2429
2561
2883
3021
3159
3377
3597
4095
3985
3875
3765
3655
3525
3395
2633
2205
1779
1441
1105
839
789
737
777
815
891
965
961
963
965
975
985
1015
1027
1037
1041
1045
1055
1061
1065
1069
1073
1077
1087
1091
1095
1099
1105
1117
1123
1131
1139
1147
1155
1165
1185
1195
1205
1215
1227
1247
1257
1267
1277
1287
1307
1315
1323
1331
1341
1349
1357
1373
1381
1389
1397
1405
1421
1429
1437
1445
1453
1461
1471
1487
1495
1505
1515
1525
1545
1555
1567
1577
1587
1611
1623
1635
1647
1659
1671
1685
1709
1721
1735
1747
1759
1785
1795
1807
1819
1831
1841
1853
1873
1883
1893
1901
1911
1927
1933
1941
1947
1953
1961
1961
1963
1961
1961
1957
1955
1943
1933
1923
1907
1893
1913
1889
1867
1865
1865
1827
1791
1709
1665
1621
1575
1529
1441
1399
1357
1319
1283
1249
1217
1163
1155
1147
1123
1099
1055
1035
1013
993
973
935
917
897
879
859
841
821
785
767
747
729
709
669
649
629
609
587
565
543
499
477
453
431
407
361
339
317
301
285
257
245
231
221
211
205
197
187
185
183
183
183
187
191
195
201
207
215
221
239
251
261
273
285
309
325
339
337
333
369
391
413
439
463
465
465
537
579
621
667
713
813
863
911
959
1005
1047
1087
1155
1145
1135
1155
1177
1211
1223
1237
1249
1263
1285
1299
1313
1327
1343
1357
1371
1403
1419
1435
1451
1469
1503
1519
1535
1551
1567
1581
1597
1621
1631
1641
1649
1657
1665
1665
1667
1665
1663
1659
1657
1645
1637
1631
1623
1617
1605
1599
1593
1587
1583
1577
1575
1575
1575
1577
1579
1581
1587
1591
1597
1601
1605
1615
1619
1623
1627
1631
1633
1637
1641
1641
1643
1643
1643
1641
1639
1637
1633
1631
1623
1617
1613
1607
1603
1595
1589
1577
1569
1563
1555
1547
1533
1527
1521
1515
1509
1503
1499
1491
1489
1487
1485
1485
1487
1489
1493
1495
1499
1509
1515
1521
1527
1533
1537
1543
1555
1559
1563
1565
1569
1573
1571
1571
1569
1567
1561
1557
1543
1535
1527
1515
1505
1483
1469
1457
1443
1431
1405
1391
1379
1367
1355
1343
1333
1313
1303
1295
1285
1277
1263
1255
1249
1243
1237
1231
1227
1215
1209
1205
1199
1193
1183
1179
1175
1171
1167
1163
1161
1159
1159
1161
1161
1163
1171
1181
1191
1201
1211
1193
1213
1235
1223
1211
1251
1293
1415
1395
1375
1475
1577
1853
2021
2189
2367
2547
2711
2877
3469
3605
3741
3733
3727
3375
3083
2793
2355
1919
1063
729
393
267
141
97
51
153
257
361
377
393
457
497
535
569
603
629
655
657
679
699
719
737
773
795
815
829
843
873
887
901
913
925
937
947
965
973
979
985
989
995
995
995
995
993
989
985
975
969
963
957
951
937
931
923
917
911
903
899
895
895
893
893
893
897
901
905
911
917
931
941
949
959
969
981
993
1017
1031
1045
1061
1075
1105
1107
1111
1129
1147
1165
1185
1225
1245
1267
1287
1309
1349
1369
1391
1409
1429
1461
1473
1487
1497
1509
1517
1527
1539
1541
1545
1543
1543
1535
1529
1523
1513
1503
1489
1477
1491
1469
1449
1423
1399
1383
1351
1321
1283
1247
1165
1121
1077
1031
983
935
887
793
749
705
667
627
561
561
559
537
513
509
505
485
479
473
471
469
467
469
471
475
479
491
499
505
513
521
529
537
553
561
567
573
579
589
593
595
597
597
597
597
593
591
587
585
581
571
567
561
557
551
541
537
531
527
523
521
517
513
511
509
509
507
507
509
509
511
511
513
515
519
523
525
529
533
541
545
549
555
559
565
569
583
589
595
603
609
623
631
637
645
653
665
673
679
685
691
697
701
709
713
715
717
719
721
721
719
717
715
713
709
699
693
687
681
675
661
653
645
637
629
615
609
601
595
587
583
577
571
569
567
567
565
569
573
575
581
585
591
597
613
623
631
641
651
673
685
695
707
719
741
753
763
773
783
793
801
815
823
829
835
839
845
847
849
851
851
851
851
847
845
843
841
837
831
829
825
821
817
809
805
801
797
793
789
785
775
771
767
763
757
747
743
739
735
731
729
725
721
721
719
721
721
727
731
735
741
747
755
763
779
789
799
809
817
837
847
855
863
869
881
885
889
893
895
897
897
893
891
889
885
881
871
865
859
853
845
839
833
819
813
807
801
793
781
775
767
761
755
745
739
733
729
723
719
715
707
705
703
703
701
703
707
709
713
715
723
731
755
767
779
773
765
809
803
797
839
881
995
975
953
1049
1145
1277
1411
1727
1891
2057
2183
2311
2907
3003
3099
2927
2757
2595
2435
2095
1697
1299
953
605
85
-34
-154
-134
-114
321
325
327
361
393
441
489
579
613
645
633
619
663
683
701
715
727
739
749
767
777
785
793
801
813
819
823
827
831
833
835
839
841
841
841
839
835
833
829
825
821
811
807
801
795
787
781
773
759
753
745
739
731
719
715
709
707
703
701
699
697
699
701
705
707
717
725
731
739
747
765
777
787
799
809
821
833
859
871
883
897
909
933
945
957
969
979
989
999
1017
1025
1031
1037
1041
1047
1049
1049
1047
1045
1037
1029
1021
1011
1001
989
977
947
951
953
933
913
867
841
815
797
779
749
719
653
621
587
551
515
443
407
371
335
297
225
189
153
119
85
55
23
9
-1
-12
-26
-40
-60
-68
-76
-80
-84
-86
-90
-92
-90
-90
-88
-88
-84
-82
-80
-78
-78
-76
-76
-74
-74
-76
-76
-76
-78
-78
-80
-80
-80
-80
-78
-78
-74
-72
-68
-64
-52
-44
-38
-30
-22
-2
7
17
27
37
49
59
81
93
103
113
123
143
153
163
173
183
201
211
221
231
241
253
263
283
295
305
317
327
349
361
371
381
391
399
407
423
429
435
441
445
449
451
453
453
453
451
449
447
445
443
441
439
435
435
435
435
435
437
439
441
445
447
451
455
463
469
473
479
483
495
501
507
513
519
535
543
551
561
571
581
591
615
629
643
657
671
703
719
735
753
769
785
801
833
849
865
879
893
921
933
943
955
965
975
983
999
1007
1013
1019
1025
1035
1041
1045
1049
1053
1059
1063
1067
1071
1073
1077
1079
1083
1085
1089
1091
1095
1103
1105
1109
1113
1117
1121
1127
1137
1143
1149
1157
1165
1181
1191
1201
1211
1223
1249
1263
1277
1291
1307
1323
1339
1373
1381
1389
1415
1441
1475
1489
1505
1519
1533
1545
1557
1577
1585
1593
1599
1605
1611
1613
1615
1613
1613
1609
1605
1601
1595
1589
1581
1575
1559
1549
1541
1529
1519
1499
1487
1475
1463
1453
1441
1429
1407
1397
1389
1381
1373
1361
1355
1349
1347
1345
1351
1355
1361
1375
1389
1379
1369
1325
1361
1399
1451
1505
1511
1609
1707
1823
1939
2067
2197
2479
2603
2729
2789
2849
3395
3395
3397
3353
3309
3295
3281
2611
2179
1749
1309
869
419
317
213
261
307
547
573
599
597
595
613
631
685
709
731
733
733
749
759
767
775
781
785
789
795
797
799
801
803
805
807
807
809
809
809
811
811
813
813
813
813
811
811
809
807
805
799
795
791
787
781
775
769
755
749
741
733
725
709
703
695
689
681
669
665
659
655
651
649
645
645
647
647
649
651
661
667
673
681
689
699
707
731
743
755
769
783
813
829
845
861
877
909
925
939
955
969
983
997
1021
1031
1041
1049
1055
1065
1067
1069
1069
1067
1063
1059
1045
1035
1025
1011
997
1011
991
969
945
919
907
895
825
789
751
711
671
589
547
505
463
421
339
301
261
223
185
153
119
105
83
59
53
47
23
15
7
3
-2
-6
-10
-14
-14
-14
-12
-12
-10
-8
-8
-6
-6
-4
-4
-4
-4
-6
-8
-10
-14
-16
-18
-18
-20
-22
-22
-22
-20
-18
-14
-12
-2
3
9
17
25
43
53
63
75
85
107
117
127
139
149
159
169
187
197
205
215
223
243
253
263
275
285
297
309
339
331
321
339
357
399
423
447
473
499
557
597
635
651
665
691
717
763
783
801
809
815
839
849
857
865
873
879
883
889
891
891
893
893
891
889
887
885
883
881
879
873
871
869
867
863
859
859
857
857
855
855
855
855
857
857
861
863
869
875
879
885
891
905
913
921
931
939
949
959
981
993
1003
1013
1023
1045
1055
1063
1073
1093
1097
1103
1107
1111
1113
1115
1115
1113
1111
1107
1105
1097
1091
1087
1077
1071
1063
1051
1045
1037
1031
1023
1011
1007
1001
997
991
985
983
981
981
981
983
985
991
997
1003
1011
1017
1037
1049
1059
1071
1095
1109
1137
1151
1167
1181
1195
1221
1231
1243
1253
1263
1279
1283
1289
1291
1295
1295
1295
1291
1287
1285
1279
1275
1261
1253
1247
1239
1233
1225
1217
1201
1193
1187
1179
1171
1155
1147
1141
1133
1125
1117
1111
1097
1089
1083
1079
1075
1065
1063
1059
1055
1051
1049
1055
1059
1065
1069
1091
1075
1053
1029
1065
1099
1207
1191
1177
1275
1375
1501
1627
1915
2075
2235
2373
2511
2721
2987
3255
3209
3163
3013
2953
2893
2553
2213
1797
1383
707
489
269
223
175
355
503
649
661
671
707
741
817
843
869
835
799
807
813
819
823
827
829
829
827
829
831
833
835
837
837
837
839
839
837
837
837
835
833
831
827
821
817
813
809
803
793
789
783
779
775
769
767
763
763
763
763
763
769
773
777
783
789
803
811
819
829
839
849
859
881
893
903
915
927
951
963
975
989
1001
1015
1027
1053
1067
1095
1109
1139
1155
1173
1175
1177
1213
1233
1253
1273
1295
1317
1339
1383
1405
1427
1445
1465
1495
1507
1521
1531
1541
1547
1555
1561
1561
1561
1557
1553
1539
1527
1517
1501
1485
1499
1473
1449
1441
1433
1401
1369
1295
1255
1215
1171
1129
1039
991
943
897
849
805
759
675
637
599
599
599
553
553
551
541
531
521
521
519
521
521
525
529
543
553
561
571
581
605
617
629
641
653
667
679
703
715
727
739
749
771
781
791
801
811
829
839
849
859
869
879
889
909
919
929
941
951
973
985
995
1005
1015
1027
1037
1057
1067
1075
1083
1091
1109
1117
1125
1131
1139
1147
1155
1171
1179
1187
1195
1203
1221
1229
1239
1249
1259
1279
1289
1299
1307
1317
1325
1335
1351
1357
1363
1367
1373
1379
1379
1381
1379
1379
1375
1373
1365
1359
1353
1345
1337
1319
1309
1299
1287
1277
1253
1241
1229
1217
1205
1193
1183
1161
1151
1141
1131
1123
1107
1099
1093
1089
1085
1083
1079
1083
1085
1095
1101
1107
1115
1123
1141
1149
1159
1167
1177
1187
1197
1213
1219
1227
1233
1239
1247
1249
1253
1253
1255
1253
1253
1249
1245
1243
1239
1237
1231
1227
1223
1219
1217
1213
1211
1209
1207
1207
1207
1207
1207
1207
1207
1207
1207
1209
1209
1211
1211
1211
1211
1213
1215
1217
1219
1221
1223
1229
1233
1237
1241
1247
1253
1259
1273
1281
1289
1297
1307
1327
1335
1345
1353
1363
1377
1383
1389
1393
1397
1397
1397
1395
1389
1385
1375
1367
1339
1351
1365
1339
1315
1311
1307
1219
1199
1181
1125
1069
929
847
765
675
585
401
313
225
145
65
-28
-122
-178
-214
-250
-306
-364
-504
-574
-644
-704
-764
-810
-856
-838
-868
-900
-916
-934
-934
-988
-1044
-1008
-974
-1052
-962
-874
-756
-638
-492
-348
-6
181
369
555
739
1169
1403
1637
1765
1895
1843
1793
1309
939
569
141
-286
-784
-906
-1028
-984
-942
-656
-488
-320
-238
-156
-72
11
119
89
57
85
111
87
93
99
105
109
109
109
119
123
125
133
139
153
163
171
183
195
209
221
253
249
245
269
291
341
367
393
419
445
495
521
545
569
593
615
637
681
701
721
741
759
795
813
831
849
865
887
907
939
955
969
985
999
1027
1043
1057
1071
1083
1111
1125
1139
1153
1169
1185
1201
1207
1223
1239
1255
1273
1313
1333
1355
1377
1401
1425
1451
1505
1525
1545
1579
1613
1669
1695
1721
1745
1769
1785
1797
1811
1819
1829
1833
1837
1837
1833
1831
1823
1815
1791
1803
1815
1793
1771
1743
1715
1699
1659
1621
1577
1535
1443
1397
1351
1305
1261
1175
1137
1099
1067
1035
1033
1031
985
973
959
947
935
917
911
905
901
897
897
897
903
909
915
925
933
957
971
985
1001
1017
1017
1017
1061
1083
1107
1131
1155
1203
1225
1249
1269
1291
1333
1351
1369
1383
1399
1413
1429
1457
1469
1483
1493
1505
1527
1537
1547
1557
1567
1575
1585
1603
1611
1619
1627
1635
1649
1655
1663
1669
1675
1687
1691
1697
1701
1707
1711
1715
1725
1727
1731
1735
1739
1745
1747
1751
1753
1757
1759
1761
1763
1763
1763
1761
1761
1757
1753
1749
1743
1739
1725
1717
1709
1701
1693
1683
1673
1653
1643
1633
1623
1615
1595
1585
1577
1569
1563
1555
1547
1535
1529
1525
1519
1515
1507
1503
1499
1495
1491
1481
1477
1473
1467
1461
1455
1451
1437
1431
1425
1419
1413
1401
1395
1391
1387
1385
1381
1379
1379
1379
1381
1383
1385
1393
1399
1405
1409
1415
1421
1427
1439
1443
1449
1453
1457
1461
1463
1465
1465
1465
1461
1459
1457
1453
1451
1447
1443
1435
1431
1429
1425
1423
1417
1415
1415
1415
1415
1415
1415
1421
1423
1427
1431
1437
1449
1457
1465
1473
1483
1503
1513
1525
1537
1551
1563
1577
1603
1617
1631
1645
1659
1687
1699
1713
1725
1739
1749
1761
1779
1785
1793
1799
1805
1809
1809
1809
1807
1805
1795
1787
1781
1773
1765
1753
1743
1721
1709
1697
1685
1673
1649
1637
1625
1613
1601
1591
1581
1561
1551
1541
1533
1525
1513
1507
1503
1499
1497
1487
1485
1485
1489
1495
1501
1507
1483
1499
1517
1485
1455
1535
1595
1657
1649
1643
1755
1869
2145
2299
2455
2615
2775
3019
3245
3473
3597
3721
3597
3475
3205
3061
2917
2515
2115
1195
925
653
517
381
461
599
737
783
829
851
871
945
981
1015
1037
1059
1039
1057
1073
1085
1097
1107
1119
1133
1139
1145
1151
1159
1171
1175
1181
1185
1189
1197
1199
1203
1205
1209
1211
1215
1221
1223
1227
1229
1233
1239
1243
1247
1249
1253
1257
1261
1267
1271
1275
1279
1283
1293
1297
1301
1305
1311
1323
1329
1335
1341
1349
1355
1363
1377
1385
1393
1401
1409
1425
1431
1439
1447
1455
1461
1467
1479
1485
1491
1495
1499
1507
1509
1513
1515
1519
1525
1527
1531
1533
1537
1541
1545
1551
1555
1559
1561
1565
1571
1571
1573
1573
1573
1571
1569
1563
1555
1549
1537
1527
1497
1507
1519
1495
1473
1467
1463
1391
1349
1309
1265
1223
1133
1089
1045
1001
955
865
823
781
741
701
663
625
557
527
495
467
437
385
371
357
335
311
297
281
253
241
229
221
211
197
193
189
187
185
185
189
191
195
199
205
209
223
229
235
243
249
263
271
277
283
289
295
299
307
311
313
317
319
323
325
327
329
331
333
337
339
341
343
347
351
361
367
371
379
385
401
411
419
429
439
449
459
479
489
499
509
519
537
545
551
559
565
579
585
589
595
599
605
609
617
623
627
633
637
647
653
659
665
671
677
681
693
697
701
705
709
715
717
717
717
717
717
715
711
707
703
699
695
685
681
675
671
665
657
653
649
647
643
641
637
635
635
635
637
637
643
647
649
655
659
665
671
685
695
703
713
721
739
749
759
769
779
797
807
815
823
829
837
843
853
857
859
863
865
867
869
869
869
869
869
869
869
871
871
873
873
879
883
885
889
893
903
909
915
921
927
933
939
951
959
965
971
977
989
995
1001
1007
1011
1017
1021
1031
1035
1039
1043
1047
1053
1057
1059
1061
1063
1067
1069
1069
1071
1071
1071
1071
1069
1069
1067
1067
1065
1061
1061
1059
1057
1055
1053
1051
1047
1045
1043
1041
1037
1031
1027
1023
1019
1013
1009
1003
991
985
977
971
965
953
949
945
943
939
939
943
945
951
955
965
975
935
953
971
993
1015
1063
1097
1131
1159
1187
1255
1323
1367
1365
1363
1483
1605
1419
1297
1177
1041
903
617
509
399
431
463
431
397
513
511
509
509
509
527
533
539
549
557
561
565
573
577
581
585
587
591
593
595
597
597
599
601
601
603
605
609
611
617
621
625
631
637
649
657
663
671
677
685
691
705
713
721
729
735
751
759
765
773
781
797
807
815
823
831
841
849
867
877
885
893
901
919
927
935
943
951
961
969
985
995
1003
1013
1023
1043
1055
1065
1077
1089
1103
1117
1149
1165
1181
1185
1189
1231
1251
1273
1295
1319
1351
1365
1381
1393
1407
1419
1431
1451
1459
1467
1473
1479
1489
1491
1495
1495
1497
1497
1497
1493
1489
1485
1479
1473
1457
1447
1439
1427
1415
1383
1389
1397
1375
1355
1329
1305
1285
1249
1213
1173
1135
1055
1013
971
929
885
845
803
725
691
655
651
645
601
597
591
579
567
551
547
543
541
537
537
535
539
543
545
549
553
563
569
575
581
587
593
597
607
613
617
621
623
627
629
629
629
627
621
617
611
605
597
589
581
561
551
539
529
517
491
479
467
455
443
431
419
397
389
379
371
361
347
341
335
331
325
321
317
311
309
307
305
303
301
301
301
303
303
307
311
313
317
321
327
333
347
355
363
373
383
405
417
427
439
451
463
475
497
509
519
529
537
553
559
563
567
569
571
569
567
563
559
553
547
529
519
509
497
485
461
447
433
419
405
391
375
347
333
317
303
289
263
249
235
223
209
185
173
161
151
139
129
119
101
95
87
81
73
63
61
57
55
53
53
53
55
59
61
65
67
77
81
85
91
95
103
107
111
115
119
123
125
129
131
133
135
135
139
141
143
145
147
151
153
159
163
167
171
173
181
183
185
187
189
189
189
187
185
181
177
173
161
155
149
143
135
123
119
115
113
109
109
109
115
121
125
135
143
167
181
195
211
225
243
259
293
311
327
345
361
393
409
425
441
457
483
499
513
515
515
531
547
583
609
635
621
607
699
761
821
841
861
951
1041
1263
1385
1509
1635
1761
1987
2179
2373
2453
2535
2513
2393
2275
2143
2011
1645
1281
457
225
-6
-114
-224
-126
25
177
345
511
565
619
747
781
813
803
791
833
833
833
847
861
877
883
889
897
905
913
919
933
941
947
955
963
979
987
995
1003
1011
1021
1029
1045
1055
1063
1073
1099
1107
1117
1127
1137
1147
1159
1181
1193
1207
1219
1233
1265
1261
1257
1275
1293
1333
1355
1379
1403
1429
1455
1483
1539
1575
1611
1645
1679
1739
1751
1763
1789
1815
1839
1863
1909
1929
1951
1971
1993
2031
2049
2067
2083
2101
2137
2151
2167
2181
2195
2207
2221
2247
2259
2271
2281
2293
2313
2321
2329
2335
2343
2347
2353
2359
2359
2359
2357
2355
2343
2335
2327
2313
2301
2271
2281
2291
2267
2245
2219
2193
2143
2109
2075
2043
2011
1947
1915
1885
1855
1825
1795
1767
1711
1689
1669
1643
1617
1569
1545
1521
1497
1475
1427
1403
1381
1357
1335
1311
1289
1241
1217
1193
1169
1145
1097
1075
1053
1031
1009
987
965
925
907
889
875
861
833
821
809
799
789
781
771
755
749
743
739
733
723
719
715
711
705
697
693
687
683
677
673
667
655
649
641
635
627
615
609
603
597
591
587
581
571
569
565
563
561
559
561
561
563
563
567
571
573
577
581
585
589
599
605
609
615
621
631
637
643
649
653
659
663
671
673
675
677
679
681
681
679
677
673
665
661
655
649
641
633
623
605
595
585
573
561
537
525
513
501
489
477
463
439
427
415
405
395
373
365
357
349
341
329
325
321
319
317
317
317
321
327
331
337
343
361
371
381
393
403
417
429
457
473
487
503
517
547
563
579
595
609
625
639
669
683
697
711
725
751
765
777
789
801
823
833
841
851
859
867
873
883
887
889
891
891
889
885
881
875
867
859
849
827
815
801
787
771
739
723
705
689
671
639
623
607
593
577
565
553
531
523
515
509
503
497
497
497
501
503
509
513
527
537
545
555
565
587
599
609
619
629
647
655
663
669
675
681
685
691
695
697
697
695
699
695
691
695
699
691
683
715
677
639
685
729
617
721
823
969
1115
1477
1669
1863
2009
2155
2527
2901
3145
2917
2691
2623
2555
1821
1369
917
489
61
-108
-280
-410
-350
-292
-150
-8
15
49
81
121
161
197
231
277
271
265
285
305
341
361
379
393
405
427
439
451
463
473
483
491
507
515
521
527
531
541
545
549
553
555
559
563
571
577
581
587
593
609
619
629
643
655
683
677
669
691
711
735
757
807
835
861
889
917
977
1007
1035
1063
1091
1119
1147
1203
1231
1259
1285
1313
1363
1391
1419
1445
1471
1523
1547
1573
1597
1621
1643
1665
1705
1715
1727
1741
1755
1779
1787
1797
1803
1811
1817
1823
1829
1829
1831
1829
1829
1823
1819
1815
1809
1803
1787
1777
1767
1755
1743
1729
1715
1683
1687
1691
1671
1653
1609
1585
1561
1535
1509
1481
1455
1411
1375
1341
1305
1271
1235
1209
1185
1163
1141
1121
1101
1069
1055
1041
1027
1011
985
973
959
947
935
911
901
889
879
867
857
845
825
815
803
793
783
763
753
743
733
721
711
701
683
673
663
655
647
631
625
619
615
609
603
603
603
605
607
613
617
633
643
653
667
679
707
721
735
751
765
781
795
821
833
843
851
859
871
875
877
877
877
873
869
863
859
853
847
839
823
817
809
803
795
781
777
771
767
761
757
753
745
743
739
737
733
725
721
717
713
709
701
697
693
689
685
683
679
673
673
671
673
673
679
685
689
697
703
711
719
741
753
763
775
785
807
817
827
835
843
851
857
865
867
869
869
867
861
857
851
845
839
825
817
809
803
795
789
781
771
767
761
759
755
751
751
751
753
753
755
757
763
767
769
773
777
783
787
789
793
795
801
803
805
807
809
811
813
819
821
823
827
829
835
839
843
847
851
855
857
865
867
869
869
869
867
865
861
857
851
835
825
815
803
791
777
763
733
717
701
685
669
639
625
611
599
585
575
563
545
537
529
525
519
511
509
507
505
503
503
503
503
505
505
507
509
515
519
523
529
535
545
553
561
575
589
603
615
599
623
647
635
623
715
779
843
833
823
925
1027
1301
1465
1629
1805
1981
2307
2585
2865
2995
3127
3145
2885
2627
2485
2345
1997
1649
939
647
353
175
-4
-116
-78
-40
85
211
215
217
225
245
263
289
313
359
369
379
393
405
433
447
459
471
483
495
505
529
541
551
563
575
597
607
617
627
637
647
655
671
677
683
689
693
699
701
701
701
701
697
695
693
689
685
683
679
671
669
665
663
661
659
661
661
663
665
669
671
681
689
695
705
713
733
745
757
771
783
813
829
845
845
845
865
883
925
947
969
995
1019
1071
1095
1121
1147
1175
1201
1227
1275
1297
1319
1329
1341
1367
1377
1387
1393
1401
1405
1409
1409
1405
1401
1393
1387
1369
1355
1343
1327
1311
1319
1295
1273
1245
1219
1209
1199
1133
1095
1059
1019
977
891
849
807
767
727
693
657
659
639
617
609
601
577
569
559
553
547
535
531
527
525
521
519
517
515
515
513
513
513
513
513
513
515
515
517
517
521
523
525
529
531
535
539
541
545
549
555
559
561
563
565
569
571
575
577
579
581
583
585
587
589
591
593
595
597
601
605
607
611
615
623
629
633
639
645
659
667
673
683
691
701
709
727
737
745
755
765
781
791
799
807
813
821
827
837
841
845
849
851
855
855
855
855
855
855
855
853
853
851
851
849
847
847
847
847
845
845
845
845
845
843
843
843
841
841
839
839
837
835
835
835
835
833
833
833
833
835
835
837
837
841
843
845
849
851
855
857
859
861
863
865
865
865
865
863
861
859
853
851
847
843
839
835
831
823
819
815
811
807
801
799
795
793
791
789
789
787
787
787
787
787
787
789
789
791
791
795
797
797
799
801
803
805
809
811
813
815
817
821
823
823
825
825
825
823
821
819
815
811
805
793
787
779
771
761
741
731
721
709
697
687
675
651
641
629
617
605
583
573
561
551
539
529
517
495
485
473
465
455
435
429
421
417
411
399
399
397
397
397
405
411
377
399
421
401
379
481
465
447
539
631
753
875
1177
1349
1523
1699
1877
2321
2547
2775
2899
3025
2945
2721
2497
2149
1801
1337
873
61
-124
-312
-386
-460
-332
-172
-14
-4
3
33
63
137
167
197
179
159
175
187
197
205
213
223
227
231
237
243
249
255
267
273
279
285
291
307
315
323
331
339
349
357
377
387
397
407
415
435
445
455
465
475
495
507
517
527
537
549
561
585
597
609
623
635
663
679
693
709
723
739
753
785
801
817
833
849
883
899
915
931
945
961
977
1009
1025
1041
1057
1071
1101
1117
1133
1147
1163
1195
1209
1225
1241
1257
1271
1287
1317
1331
1345
1359
1373
1399
1409
1421
1431
1441
1449
1457
1467
1469
1473
1473
1473
1467
1461
1457
1447
1437
1411
1421
1433
1411
1391
1365
1341
1309
1275
1241
1205
1171
1099
1065
1029
995
959
925
891
827
797
767
757
747
701
681
659
645
631
603
593
581
573
563
557
549
539
537
535
535
535
541
545
549
557
563
571
579
599
611
621
633
643
667
679
691
703
715
737
747
757
765
773
781
789
803
809
813
817
821
827
831
833
835
837
839
841
843
845
847
849
849
853
855
857
861
863
867
869
875
879
881
885
889
895
901
905
909
913
923
929
935
943
949
957
963
981
991
999
1009
1019
1041
1051
1061
1071
1091
1101
1119
1127
1135
1141
1149
1159
1161
1165
1167
1169
1171
1169
1169
1167
1167
1165
1165
1163
1161
1161
1161
1161
1163
1163
1165
1167
1171
1175
1179
1189
1195
1201
1207
1213
1225
1231
1239
1245
1253
1269
1277
1285
1293
1301
1309
1319
1337
1347
1357
1367
1377
1399
1409
1421
1431
1443
1453
1463
1485
1495
1505
1515
1525
1541
1547
1555
1561
1569
1577
1581
1585
1587
1589
1591
1593
1595
1595
1595
1595
1595
1593
1593
1593
1593
1593
1593
1595
1597
1599
1601
1601
1603
1607
1609
1611
1613
1615
1617
1619
1623
1623
1625
1625
1627
1629
1629
1629
1629
1629
1629
1627
1627
1623
1621
1617
1615
1607
1601
1597
1591
1585
1571
1561
1553
1543
1535
1525
1515
1495
1485
1475
1465
1457
1441
1435
1429
1423
1419
1417
1415
1413
1415
1419
1427
1435
1453
1443
1435
1457
1479
1447
1487
1527
1583
1641
1635
1629
1847
1973
2101
2237
2373
2661
2851
3041
3139
3239
3499
3311
3123
3045
2967
2677
2387
1719
1377
1035
853
671
497
531
563
757
951
971
989
1069
1115
1163
1207
1251
1309
1267
1227
1239
1251
1267
1271
1275
1275
1277
1273
1271
1273
1271
1271
1269
1269
1267
1265
1265
1265
1265
1265
1265
1267
1267
1269
1271
1273
1279
1281
1285
1289
1293
1297
1303
1313
1319
1325
1331
1339
1355
1363
1373
1381
1391
1409
1419
1431
1441
1451
1461
1471
1493
1503
1513
1523
1533
1553
1561
1571
1579
1589
1597
1605
1621
1629
1637
1643
1651
1667
1675
1683
1689
1697
1713
1719
1727
1733
1741
1747
1755
1767
1771
1777
1781
1785
1791
1791
1793
1793
1793
1791
1789
1781
1775
1769
1761
1755
1735
1723
1713
1699
1685
1655
1637
1621
1623
1625
1603
1583
1539
1513
1489
1461
1433
1397
1363
1329
1293
1259
1221
1185
1113
1077
1041
1007
971
903
871
837
807
775
715
701
687
665
641
621
601
587
577
565
557
547
533
527
521
519
515
513
511
511
513
513
515
515
519
521
523
527
529
533
535
543
547
551
557
561
571
577
581
587
593
603
609
613
619
623
627
631
637
639
641
641
641
641
641
639
637
635
633
631
627
625
623
623
621
619
619
617
619
619
621
623
625
627
627
629
631
635
637
639
641
643
645
647
649
651
651
653
655
659
663
665
669
673
683
689
695
703
711
727
737
745
755
765
775
785
805
815
823
831
837
851
857
861
865
869
871
873
873
873
873
871
869
865
863
861
859
855
851
849
847
845
843
843
841
839
839
837
837
837
837
839
839
841
843
847
849
855
861
867
875
881
899
909
919
931
943
957
969
995
1011
1025
1039
1053
1079
1091
1103
1115
1127
1147
1155
1165
1171
1179
1183
1189
1199
1201
1205
1207
1209
1211
1211
1213
1211
1211
1209
1209
1205
1201
1199
1195
1191
1181
1175
1169
1163
1157
1143
1135
1129
1121
1113
1105
1099
1085
1075
1069
1063
1051
1047
1043
1039
1035
1033
1029
1023
1023
1021
1019
1017
1017
1017
1017
1019
1019
1023
1027
1031
1035
1039
1043
1047
1059
1069
1079
1087
1095
1089
1107
1125
1109
1095
1129
1165
1273
1247
1221
1319
1419
1687
1847
2009
2177
2347
2603
2895
3187
3309
3433
3257
3081
3007
2699
2391
1957
1525
705
473
241
113
-14
-10
-6
393
395
395
425
453
545
593
639
679
717
713
709
755
775
795
801
805
825
833
839
845
851
861
865
867
869
871
871
871
873
873
873
873
873
875
875
875
877
879
881
881
885
887
889
893
895
901
905
909
913
917
927
933
937
943
949
957
963
977
987
995
1005
1013
1033
1045
1055
1067
1079
1089
1101
1129
1143
1157
1171
1187
1217
1233
1249
1263
1279
1309
1323
1339
1353
1367
1379
1393
1417
1427
1437
1445
1455
1469
1473
1479
1483
1487
1487
1489
1489
1487
1485
1481
1477
1465
1457
1449
1439
1429
1405
1391
1379
1363
1349
1333
1317
1317
1297
1277
1255
1233
1189
1165
1141
1115
1091
1067
1043
991
967
941
917
893
845
823
801
779
757
737
715
675
657
639
621
603
565
549
533
519
505
477
465
453
441
429
419
407
389
381
373
367
359
347
343
339
337
333
331
329
329
331
333
337
339
347
353
357
365
371
385
395
403
413
421
431
439
459
469
479
489
499
517
527
535
545
553
561
567
579
585
589
593
597
603
605
605
605
605
605
603
601
599
595
591
587
577
573
567
563
557
543
537
531
525
517
511
503
489
483
475
469
461
447
441
435
431
425
413
409
405
401
397
395
391
387
385
383
381
379
377
375
373
373
371
371
369
365
363
361
359
355
347
343
339
335
331
325
319
307
301
295
289
283
269
263
255
249
241
229
223
217
213
207
203
197
189
185
181
179
177
173
173
171
171
171
173
173
175
179
181
185
189
199
205
209
217
223
239
249
257
267
277
289
299
321
333
345
357
369
391
403
413
423
431
441
449
461
465
469
473
475
475
473
469
465
461
449
441
433
425
417
409
399
381
373
363
357
349
335
331
327
325
321
321
319
321
325
327
333
337
351
361
369
383
395
419
435
451
449
447
471
495
513
553
593
587
579
689
767
845
953
1061
1199
1339
1669
1843
2019
2179
2339
2865
3017
3171
3181
3191
2883
2577
2271
1835
1401
1059
717
245
157
69
101
133
343
333
323
353
381
405
427
493
521
549
563
577
617
637
657
675
691
705
719
747
761
775
789
801
829
843
855
869
883
911
927
941
957
971
987
1001
1031
1045
1059
1073
1087
1113
1125
1139
1149
1161
1171
1183
1203
1211
1219
1227
1235
1249
1255
1263
1269
1277
1289
1295
1301
1307
1313
1319
1325
1339
1345
1351
1357
1365
1381
1387
1395
1403
1411
1419
1429
1447
1455
1465
1475
1485
1507
1517
1529
1541
1553
1579
1591
1605
1617
1629
1641
1655
1679
1689
1701
1711
1721
1737
1743
1749
1753
1757
1757
1759
1755
1749
1745
1737
1729
1707
1693
1679
1685
1693
1671
1651
1603
1577
1551
1533
1515
1447
1411
1375
1339
1305
1235
1201
1169
1157
1147
1123
1101
1063
1057
1049
1039
1027
1011
1003
995
991
985
981
977
971
969
965
963
961
955
953
949
945
939
929
923
915
907
899
891
881
861
851
839
829
819
799
791
781
773
763
757
749
739
735
731
729
727
727
729
729
731
733
741
745
747
751
755
761
765
773
777
781
785
789
797
801
803
807
809
813
817
823
827
829
833
837
843
847
849
853
855
859
861
861
863
863
863
861
857
853
849
845
841
827
821
813
805
795
785
775
755
743
731
721
709
685
673
659
647
635
623
611
589
577
565
555
545
525
517
507
499
491
477
471
465
461
455
451
447
439
437
435
433
431
429
429
429
429
429
431
431
433
435
437
441
443
449
453
457
461
465
473
479
483
489
495
501
505
515
521
527
533
537
547
551
555
561
565
569
573
581
585
587
591
595
603
609
613
619
623
633
639
645
651
657
665
671
685
693
701
709
717
735
745
753
763
773
785
795
819
833
845
859
871
901
917
933
937
939
977
997
1017
1037
1057
1077
1097
1137
1155
1175
1195
1215
1249
1261
1273
1287
1301
1325
1349
1359
1375
1391
1409
1429
1477
1499
1521
1519
1519
1553
1587
1681
1745
1811
1801
1791
1993
2129
2265
2433
2603
2981
3167
3353
3617
3881
4087
4295
4471
4383
4295
4021
3749
2965
2495
2027
1665
1305
1191
1077
1059
1163
1269
1415
1563
1813
1841
1871
1915
1961
1897
1921
1945
1949
1953
1963
1973
1991
1995
2001
2009
2017
2033
2041
2049
2057
2067
2075
2085
2105
2115
2127
2137
2149
2171
2181
2193
2203
2215
2237
2247
2259
2267
2277
2285
2295
2311
2319
2327
2333
2339
2351
2357
2363
2369
2375
2381
2387
2397
2403
2409
2413
2419
2431
2435
2441
2445
2451
2461
2465
2469
2473
2477
2479
2483
2489
2491
2495
2497
2499
2503
2505
2507
2507
2509
2509
2511
2513
2513
2515
2515
2515
2515
2513
2511
2509
2507
2503
2501
2493
2487
2483
2475
2469
2453
2443
2435
2423
2413
2389
2375
2363
2349
2335
2319
2305
2273
2269
2265
2247
2231
2195
2177
2159
2139
2119
2097
2075
2029
2003
1977
1967
1959
1893
1857
1821
1781
1743
1661
1621
1581
1541
1503
1465
1427
1355
1319
1283
1249
1215
1147
1113
1067
1051
1027
1003
961
953
943
931
919
899
891
883
879
873
869
869
869
871
871
875
879
889
897
903
911
917
933
943
951
961
969
979
987
1003
1013
1021
1029
1037
1051
1059
1065
1071
1077
1087
1091
1097
1101
1105
1109
1113
1119
1121
1125
1127
1129
1133
1133
1135
1135
1135
1135
1135
1133
1131
1131
1129
1129
1127
1127
1127
1125
1125
1125
1127
1129
1131
1133
1135
1139
1145
1149
1153
1157
1163
1171
1175
1179
1183
1187
1189
1191
1195
1195
1195
1193
1193
1189
1185
1181
1175
1171
1165
1161
1151
1145
1139
1133
1129
1121
1117
1115
1113
1111
1109
1109
1109
1109
1111
1113
1115
1119
1121
1123
1125
1127
1129
1129
1131
1129
1129
1127
1127
1123
1119
1117
1113
1111
1105
1101
1099
1097
1095
1091
1091
1093
1095
1097
1099
1103
1113
1119
1125
1133
1141
1157
1165
1173
1181
1189
1197
1205
1217
1223
1229
1233
1237
1241
1241
1241
1241
1241
1235
1231
1229
1225
1221
1215
1209
1197
1191
1185
1177
1171
1155
1147
1141
1133
1125
1117
1109
1091
1083
1077
1069
1061
1045
1039
1031
1025
1017
1013
1007
997
995
991
991
989
987
989
991
995
997
1007
1015
1021
1031
1039
1051
1063
1085
1099
1115
1111
1107
1149
1171
1193
1219
1245
1253
1261
1343
1393
1445
1463
1481
1591
1679
1767
1871
1977
2203
2303
2403
2647
2893
2967
3041
2903
2821
2741
2313
1885
1005
679
353
203
53
59
65
253
331
409
433
457
545
591
637
675
713
775
801
827
855
883
899
913
957
969
981
995
1009
1031
1041
1049
1057
1065
1071
1077
1085
1089
1095
1099
1103
1111
1115
1121
1127
1135
1149
1157
1167
1177
1189
1201
1213
1239
1253
1267
1281
1297
1327
1341
1357
1371
1387
1401
1415
1443
1455
1469
1483
1497
1523
1537
1551
1565
1579
1595
1611
1643
1643
1643
1661
1681
1723
1745
1769
1793
1817
1865
1889
1915
1939
1963
1985
2009
2051
2061
2073
2087
2101
2123
2131
2139
2145
2153
2155
2159
2163
2161
2161
2157
2155
2145
2137
2131
2123
2115
2095
2083
2071
2059
2047
2033
2019
1989
1973
1957
1939
1923
1915
1895
1877
1857
1837
1817
1797
1757
1737
1719
1699
1679
1643
1623
1605
1589
1573
1545
1531
1517
1503
1491
1477
1465
1441
1429
1417
1405
1395
1373
1361
1351
1341
1331
1321
1311
1293
1283
1275
1267
1261
1249
1243
1239
1235
1233
1229
1229
1229
1231
1233
1235
1239
1247
1251
1257
1263
1269
1281
1287
1295
1303
1311
1317
1325
1341
1349
1357
1365
1373
1391
1399
1407
1415
1425
1433
1441
1459
1467
1477
1485
1493
1507
1513
1521
1527
1533
1541
1543
1545
1545
1547
1545
1543
1537
1531
1525
1515
1507
1487
1475
1463
1449
1435
1419
1405
1375
1359
1343
1327
1311
1281
1267
1253
1239
1225
1201
1191
1181
1171
1161
1153
1147
1133
1129
1125
1121
1117
1113
1111
1111
1111
1111
1111
1113
1115
1117
1121
1123
1125
1131
1135
1139
1141
1145
1153
1155
1159
1163
1167
1169
1173
1177
1179
1183
1183
1185
1187
1187
1189
1189
1189
1187
1187
1185
1183
1183
1181
1179
1175
1171
1169
1167
1165
1159
1157
1155
1151
1149
1147
1145
1141
1139
1139
1137
1137
1137
1137
1139
1141
1143
1147
1151
1161
1167
1175
1183
1193
1215
1227
1239
1251
1265
1277
1291
1317
1329
1341
1351
1363
1381
1387
1395
1397
1401
1403
1399
1397
1391
1387
1379
1371
1351
1339
1327
1313
1301
1273
1259
1245
1231
1217
1203
1191
1165
1153
1141
1131
1121
1101
1093
1085
1075
1063
1061
1057
1055
1053
1053
1051
1057
1059
1061
1067
1073
1085
1097
1109
1101
1095
1117
1141
1127
1169
1211
1209
1209
1337
1427
1517
1633
1749
2033
2191
2349
2507
2667
2895
3123
3447
3531
3615
3451
3289
2973
2797
2621
2243
1867
1509
1151
597
451
303
285
265
391
443
495
505
513
523
543
563
587
609
629
647
681
695
709
723
735
761
773
783
793
801
809
817
829
835
839
843
847
851
853
853
853
851
851
849
843
841
837
833
829
819
815
809
805
799
789
785
779
775
771
767
763
755
753
751
749
747
745
747
747
749
751
755
759
769
777
783
791
799
819
831
841
853
865
891
905
919
935
949
965
979
1011
1027
1043
1059
1075
1105
1119
1135
1149
1163
1175
1187
1207
1215
1223
1227
1231
1237
1233
1231
1223
1217
1193
