7748
7774
7788
7772
7742
7726
7736
7757
7767
7765
7767
7781
7797
7790
7754
7710
7690
7708
7749
7782
7791
7778
7760
7749
7751
7769
7800
7836
7857
7848
7810
7764
7736
7739
7761
7784
7808
7846
7902
7954
7969
7934
7874
7833
7833
7854
7854
7815
7756
7715
7712
7738
7772
7802
7824
7832
7813
7764
7706
7665
7656
7666
7668
7648
7621
7607
7618
7649
7682
7700
7687
7648
7609
7611
7681
7797
7891
7903
7832
7733
7664
7631
7599
7544
7499
7516
7605
7704
7740
7700
7640
7631
7685
7759
7815
7865
7951
8090
8251
8389
8491
8583
8688
8785
8830
8799
8711
8603
8493
8370
8219
8051
7895
7770
7673
7590
7519
7476
7475
7511
7559
7594
7611
7622
7643
7674
7700
7699
7666
7623
7607
7640
7704
7758
7772
7759
7762
7810
7889
7954
7976
7968
7957
7949
7920
7855
7783
7767
7845
7984
8095
8111
8042
7965
7953
8019
8111
8169
8178
8167
8173
8206
8236
8230
8188
8146
8144
8191
8254
8291
8288
8271
8274
8303
8328
8315
8269
8229
8238
8295
8360
8387
8373
8351
8361
8408
8455
8456
8395
8304
8243
8257
8340
8438
8493
8490
8470
8490
8566
8652
8676
8610
8500
8426
8442
8538
8654
8733
8754
8730
8690
8658
8644
8638
8619
8584
8563
8613
8754
8931
9037
8997
8854
8740
8770
8933
9102
9145
9036
8877
8796
8840
8954
9042
9053
9008
8967
8969
8995
8999
8947
8864
8811
8839
8928
8996
8962
8825
8675
8620
8687
8805
8871
8841
8757
8693
8682
8707
8741
8775
8812
8838
8829
8788
8764
8807
8918
9032
9076
9030
8938
8859
8816
8792
8769
8753
8765
8807
8855
8877
8861
8820
8787
8791
8846
8930
8995
8995
8933
8862
8839
8867
8893
8866
8804
8780
8837
8936
8996
8989
8972
9017
9114
9171
9111
8976
8891
8939
9068
9152
9122
9037
9011
9089
9200
9241
9182
9090
9045
9066
9111
9134
9131
9124
9124
9124
9121
9131
9171
9229
9274
9284
9270
9255
9250
9246
9231
9212
9205
9213
9227
9234
9240
9255
9283
9310
9319
9303
9264
9209
9152
9118
9136
9216
9331
9425
9459
9433
9376
9317
9266
9232
9236
9288
9368
9424
9417
9361
9316
9323
9364
9383
9352
9310
9320
9398
9487
9510
9444
9343
9286
9302
9352
9380
9364
9332
9327
9361
9416
9463
9491
9502
9501
9488
9465
9441
9428
9427
9430
9425
9413
9410
9424
9445
9448
9421
9384
9373
9408
9465
9494
9466
9401
9358
9378
9446
9504
9504
9458
9420
9433
9486
9527
9514
9459
9411
9409
9447
9478
9466
9416
9372
9370
9417
9481
9528
9546
9551
9566
9602
9650
9690
9705
9685
9637
9579
9531
9509
9510
9520
9528
9537
9553
9574
9585
9582
9578
9597
9639
9662
9615
9503
9397
9381
9468
9582
9626
9575
9496
9464
9485
9503
9486
9475
9535
9656
9739
9695
9555
9453
9488
9620
9708
9666
9552
9499
9562
9661
9670
9560
9417
9340
9339
9354
9351
9365
9447
9576
9665
9652
9572
9515
9532
9593
9643
9670
9708
9766
9806
9782
9715
9674
9698
9742
9726
9634
9534
9505
9541
9559
9504
9416
9397
9499
9675
9834
9930
9988
10056
10141
10225
10303
10396
10515
10630
10691
10672
10596
10498
10388
10254
10098
9947
9824
9723
9618
9510
9433
9419
9454
9496
9530
9581
9671
9765
9790
9716
9607
9572
9650
9773
9840
9825
9795
9819
9883
9912
9865
9791
9763
9791
9806
9762
9700
9712
9827
9956
9989
9913
9828
9822
9858
9809
9612
9371
9276
9414
9678
9857
9839
9696
9600
9645
9784
9899
9933
9922
9927
9955
9959
9908
9830
9787
9809
9864
9899
9894
9875
9879
9913
9949
9951
9910
9842
9785
9770
9816
9915
10033
10117
10131
10072
9978
9903
9886
9937
10034
10135
10193
10177
10094
9995
9943
9965
10032
10086
10095
10079
10084
10133
10204
10257
10273
10268
10265
10264
10253
10230
10214
10228
10273
10330
10381
10416
10428
10399
10318
10211
10143
10172
10289
10422
10490
10474
10425
10396
10392
10370
10295
10191
10117
10121
10193
10284
10342
10346
10306
10245
10191
10158
10143
10125
10082
10023
9986
10003
10064
10117
10116
10063
10001
9976
9989
10008
9999
9958
9911
9889
9912
9976
10053
10089
10041
9917
9791
9759
9857
10021
10131
10116
10007
9903
9879
9928
9979
9974
9910
9835
9802
9833
9912
9994
10030
10004
9945
9909
9930
9982
10004
9965
9902
9882
9926
9979
9974
9910
9857
9880
9961
10015
9985
9903
9858
9896
9977
10025
10006
9945
9884
9836
9792
9762
9780
9861
9974
10061
10097
10107
10127
10151
10149
10108
10064
10053
10068
10055
9979
9880
9834
9883
9989
10075
10100
10075
10033
9987
9939
9914
9947
10040
10134
10158
10097
10013
9979
9992
9986
9913
9817
9794
9892
10048
10146
10128
10044
9991
10010
10059
10072
10036
9998
10005
10052
10089
10080
10032
9986
9965
9965
9972
9989
10029
10088
10134
10132
10078
10005
9960
9961
9991
10020
10040
10059
10087
10110
10104
10060
10001
9963
9965
9994
10026
10050
10065
10069
10046
9993
9940
9937
10010
10122
10199
10191
10117
10045
10023
10045
10074
10094
10126
10188
10260
10286
10233
10128
10034
9996
10010
10041
10063
10077
10096
10125
10159
10189
10205
10191
10134
10052
9997
10017
10105
10196
10215
10147
10047
9991
10004
10057
10108
10142
10171
10197
10206
10188
10155
10137
10145
10164
10178
10193
10224
10264
10275
10222
10124
10049
10057
10145
10252
10313
10313
10284
10265
10266
10277
10287
10288
10274
10237
10178
10124
10109
10147
10214
10263
10263
10219
10164
10134
10147
10194
10250
10283
10276
10234
10183
10146
10131
10129
10132
10142
10157
10163
10144
10109
10101
10157
10258
10328
10294
10158
10006
9939
9985
10085
10155
10167
10162
10194
10258
10300
10269
10178
10100
10103
10196
10323
10414
10434
10413
10412
10475
10601
10751
10883
10990
11096
11223
11358
11453
11455
11346
11154
10936
10749
10618
10528
10442
10325
10175
10033
9954
9966
10047
10141
10204
10233
10245
10252
10245
10226
10224
10274
10376
10471
10487
10409
10291
10209
10190
10206
10220
10232
10264
10318
10353
10328
10259
10215
10245
10324
10373
10342
10260
10207
10227
10292
10339
10338
10315
10310
10328
10339
10320
10288
10283
10324
10386
10426
10420
10384
10346
10329
10342
10382
10441
10495
10508
10458
10366
10293
10294
10369
10458
10488
10438
10358
10322
10361
10437
10483
10464
10406
10366
10380
10435
10498
10546
10581
10602
10590
10528
10436
10371
10387
10484
10601
10671
10670
10627
10581
10546
10520
10513
10550
10639
10743
10794
10760
10675
10617
10633
10700
10759
10771
10750
10734
10738
10748
10748
10748
10772
10823
10874
10891
10869
10838
10832
10857
10885
10886
10847
10784
10725
10692
10690
10710
10730
10731
10714
10692
10678
10671
10651
10614
10579
10578
10615
10648
10618
10507
10369
10291
10325
10438
10545
10577
10533
10471
10443
10453
10461
10435
10384
10348
10362
10415
10469
10489
10475
10455
10453
10466
10471
10450
10406
10360
10333
10333
10362
10413
10467
10489
10454
10369
10283
10256
10303
10386
10444
10452
10438
10441
10466
10475
10438
10375
10342
10372
10436
10473
10448
10388
10349
10362
10411
10461
10491
10504
10503
10485
10452
10426
10429
10459
10479
10455
10398
10357
10366
10406
10424
10393
10343
10329
10370
10429
10458
10456
10460
10498
10549
10567
10541
10516
10543
10616
10665
10622
10499
10377
10336
10378
10440
10459
10436
10422
10460
10531
10574
10544
10457
10371
10341
10371
10417
10429
10390
10326
10286
10301
10362
10434
10485
10506
10511
10505
10484
10439
10385
10357
10382
10447
10513
10546
10548
10545
10553
10555
10527
10471
10417
10394
10401
10411
10409
10407
10425
10457
10470
10445
10403
10387
10417
10463
10481
10457
10422
10417
10442
10467
10470
10469
10498
10557
10603
10583
10495
10400
10370
10434
10549
10636
10633
10536
10399
10290
10256
10290
10344
10377
10387
10410
10468
10534
10545
10476
10376
10341
10417
10552
10640
10619
10523
10447
10446
10495
10523
10492
10426
10380
10386
10438
10506
10559
10573
10539
10475
10423
10428
10491
10565
10590
10554
10495
10462
10465
10481
10490
10502
10529
10556
10546
10488
10428
10423
10484
10562
10597
10586
10579
10612
10662
10669
10611
10529
10479
10474
10478
10458
10432
10445
10510
10586
10614
10581
10525
10489
10481
10479
10467
10453
10446
10441
10423
10399
10396
10435
10502
10556
10566
10538
10499
10472
10462
10467
10485
10504
10500
10450
10372
10323
10351
10452
10560
10604
10564
10481
10415
10397
10425
10479
10533
10560
10531
10448
10353
10310
10359
10480
10617
10728
10816
10915
11045
11198
11349
11480
11587
11665
11704
11692
11626
11509
11346
11143
10922
10714
10543
10413
10316
10254
10243
10290
10372
10444
10476
10481
10491
10520
10548
10543
10502
10453
10421
10409
10404
10408
10439
10500
10561
10579
10542
10485
10455
10465
10490
10499
10493
10493
10511
10531
10530
10509
10492
10491
10498
10496
10485
10483
10502
10525
10528
10508
10486
10486
10505
10521
10527
10531
10546
10560
10552
10523
10501
10518
10564
10599
10590
10551
10525
10539
10573
10584
10559
10528
10530
10568
10609
10622
10610
10600
10604
10604
10576
10520
10470
10463
10504
10561
10599
10613
10631
10683
10768
10841
10856
10797
10699
10625
10612
10650
10698
10725
10733
10750
10789
10836
10863
10860
10841
10826
10819
10817
10823
10856
10924
11002
11042
11014
10941
10874
10852
10866
10880
10870
10853
10866
10919
10982
11007
10973
10899
10831
10801
10805
10819
10817
10801
10790
10796
10809
10801
10760
10708
10691
10731
10796
10819
10754
10625
10506
10460
10481
10512
10498
10440
10389
10395
10462
10548
10604
10605
10566
10525
10509
10521
10533
10516
10469
10425
10424
10471
10524
10531
10479
10411
10383
10414
10465
10493
10487
10470
10465
10469
10467
10460
10465
10486
10500
10480
10436
10407
10418
10448
10448
10404
10361
10375
10453
10540
10579
10563
10534
10527
10531
10522
10497
10482
10494
10510
10504
10484
10487
10526
10554
10512
10401
10303
10303
10400
10509
10550
10530
10514
10536
10546
10480
10349
10248
10264
10383
10508
10565
10569
10588
10644
10686
10653
10553
10463
10440
10472
10501
10501
10504
10548
10617
10648
10602
10508
10430
10404
10410
10417
10426
10463
10526
10571
10549
10470
10402
10402
10460
10506
10488
10424
10380
10400
10459
10497
10487
10454
10442
10463
10485
10474
10432
10397
10405
10459
10526
10575
10592
10579
10544
10495
10449
10428
10442
10482
10514
10518
10497
10476
10472
10478
10479
10474
10488
10535
10593
10612
10561
10459
10372
10351
10395
10454
10481
10470
10445
10435
10444
10460
10476
10491
10501
10501
10485
10461
10440
10426
10414
10410
10438
10510
10595
10626
10555
10413
10295
10284
10369
10460
10474
10418
10378
10430
10565
10695
10740
10681
10566
10462
10405
10404
10440
10482
10493
10455
10390
10358
10407
10523
10634
10666
10604
10502
10428
10414
10445
10489
10529
10559
10574
10565
10534
10496
10469
10457
10455
10458
10471
10501
10536
10558
10558
10548
10543
10545
10541
10531
10534
10567
10613
10628
10585
10510
10462
10481
10542
10584
10570
10519
10470
10437
10397
10334
10277
10290
10402
10567
10687
10694
10601
10491
10442
10474
10541
10577
10546
10463
10381
10346
10366
10409
10433
10422
10403
10416
10472
10537
10562
10531
10472
10430
10419
10415
10391
10354
10350
10421
10565
10739
10883
10965
10986
10980
10990
11053
11187
11369
11549
11671
11703
11650
11532
11373
11188
10998
10829
10696
10590
10487
10376
10274
10214
10215
10262
10324
10378
10421
10453
10467
10453
10422
10404
10427
10483
10537
10551
10523
10486
10479
10517
10575
10613
10601
10545
10481
10446
10458
10496
10521
10512
10488
10490
10534
10591
10610
10566
10494
10454
10472
10519
10547
10534
10506
10493
10498
10500
10496
10510
10567
10644
10679
10635
10537
10462
10465
10537
10620
10668
10675
10654
10607
10533
10458
10441
10524
10672
10790
10796
10691
10558
10483
10486
10527
10567
10601
10647
10704
10749
10761
10750
10740
10737
10722
10684
10646
10648
10696
10749
10756
10715
10676
10694
10763
10824
10825
10772
10719
10720
10774
10845
10894
10916
10918
10907
10880
10848
10834
10865
10939
11021
11073
11077
11044
11002
10974
10971
10992
11024
11048
11041
10996
10927
10867
10839
10844
10860
10858
10826
10777
10735
10724
10748
10791
10822
10816
10774
10724
10697
10701
10715
10708
10668
10614
10581
10583
10604
10609
10571
10498
10425
10393
10418
10489
10575
10644
10679
10674
10633
10563
10482
10419
10407
10459
10546
10613
10618
10565
10501
10469
10472
10471
10433
10372
10342
10383
10481
10575
10609
10581
10535
10514
10529
10553
10561
10554
10549
10555
10558
10538
10493
10449
10440
10478
10544
10599
10620
10610
10593
10590
10599
10597
10571
10529
10499
10496
10510
10513
10495
10480
10498
10555
10612
10622
10581
10530
10521
10562
10611
10621
10590
10559
10562
10589
10599
10567
10516
10489
10502
10528
10533
10516
10508
10533
10574
10589
10558
10505
10478
10503
10562
10612
10625
10599
10553
10512
10500
10531
10596
10659
10675
10632
10565
10524
10529
10548
10536
10487
10448
10466
10537
10605
10615
10571
10522
10510
10525
10527
10498
10461
10458
10497
10546
10565
10545
10506
10475
10460
10462
10484
10525
10560
10549
10476
10382
10346
10419
10567
10696
10728
10664
10574
10530
10540
10562
10553
10514
10482
10481
10502
10519
10517
10507
10505
10511
10518
10522
10533
10554
10570
10559
10520
10483
10486
10528
10563
10544
10473
10410
10416
10490
10564
10566
10497
10424
10423
10501
10598
10649
10641
10613
10604
10610
10603
10572
10542
10535
10544
10532
10481
10420
10404
10454
10536
10592
10597
10576
10570
10589
10600
10568
10487
10395
10343
10368
10470
10613
10734
10775
10713
10594
10497
10482
10535
10581
10556
10469
10391
10393
10488
10629
10759
10843
10869
10833
10731
10586
10449
10376
10387
10460
10550
10622
10662
10662
10620
10548
10483
10461
10486
10521
10521
10481
10434
10424
10461
10522
10582
10625
10646
10633
10580
10507
10455
10446
10457
10439
10377
10319
10339
10458
10611
10699
10675
10576
10472
10404
10363
10335
10335
10391
10500
10608
10656
10631
10571
10523
10498
10486
10489
10534
10642
10791
10932
11032
11107
11200
11326
11461
11567
11638
11689
11724
11707
11599
11402
11178
10989
10848
10711
10535
10339
10195
10166
10243
10357
10430
10438
10413
10400
10427
10485
10558
10627
10682
10709
10694
10634
10546
10460
10412
10420
10476
10546
10592
10590
10548
10503
10490
10521
10572
10603
10593
10549
10496
10459
10448
10462
10499
10553
10611
10657
10674
10661
10631
10603
10587
10583
10587
10595
10605
10610
10602
10581
10558
10551
10569
10601
10624
10619
10590
10562
10565
10612
10687
10756
10783
10749
10667
10569
10497
10477
10508
10562
10606
10623
10618
10613
10616
10624
10623
10614
10620
10666
10748
10825
10848
10804
10729
10688
10716
10793
10861
10879
10854
10826
10828
10860
10895
10910
10906
10894
10885
10879
10873
10878
10902
10944
10988
11014
11012
10985
10942
10892
10854
10851
10901
10990
11075
11108
11072
10998
10939
10924
10944
10964
10955
10916
10865
10821
10794
10783
10780
10779
10779
10781
10793
10810
10820
10807
10773
10741
10732
10744
10746
10713
10650
10598
10587
10606
10612
10577
10520
10488
10508
10551
10563
10523
10465
10446
10488
10560
10609
10612
10588
10569
10565
10558
10534
10506
10500
10529
10577
10617
10630
10616
10584
10539
10488
10447
10441
10478
10534
10563
10541
10488
10458
10491
10572
10639
10640
10575
10493
10450
10457
10485
10500
10499
10507
10540
10591
10634
10655
10657
10646
10617
10563
10499
10459
10471
10518
10548
10532
10493
10492
10563
10668
10729
10698
10599
10505
10474
10506
10561
10602
10614
10601
10561
10500
10437
10401
10412
10467
10548
10639
10730
10802
10821
10768
10667
10578
10544
10550
10542
10486
10413
10382
10420
10492
10539
10541
10534
10557
10600
10612
10566
10495
10461
10490
10546
10576
10566
10547
10551
10572
10575
10542
10501
10488
10505
10515
10488
10440
10422
10470
10565
10650
10673
10631
10554
10478
10425
10403
10418
10468
10538
10601
10632
10624
10589
10552
10532
10531
10541
10545
10536
10520
10515
10530
10558
10579
10578
10560
10546
10547
10555
10555
10543
10541
10565
10608
10637
10621
10558
10481
10427
10416
10443
10492
10542
10569
10555
10502
10439
10408
10432
10491
10540
10552
10537
10530
10548
10572
10567
10520
10454
10409
10409
10446
10497
10543
10573
10587
10581
10560
10538
10536
10561
10599
10620
10603
10553
10500
10474
10489
10528
10564
10580
10576
10564
10556
10554
10556
10559
10559
10546
10510
10455
10410
10414
10478
10561
10599
10557
10476
10441
10506
10639
10743
10738
10636
10526
10493
10552
10637
10675
10639
10560
10494
10475
10501
10553
10605
10637
10639
10614
10579
10553
10539
10526
10504
10482
10474
10486
10502
10509
10508
10520
10556
10594
10595
10544
10470
10427
10443
10496
10530
10514
10465
10437
10465
10540
10614
10639
10602
10529
10462
10431
10439
10471
10499
10508
10493
10467
10444
10434
10439
10457
10489
10540
10608
10673
10708
10703
10680
10696
10797
10982
11196
11366
11467
11529
11604
11701
11767
11734
11588
11380
11180
11009
10835
10628
10416
10270
10241
10301
10374
10407
10413
10437
10497
10556
10566
10522
10469
10450
10468
10497
10517
10537
10569
10600
10602
10572
10547
10567
10624
10657
10609
10491
10375
10339
10396
10495
10572
10599
10591
10571
10550
10527
10510
10508
10526
10552
10564
10556
10531
10503
10482
10478
10500
10552
10619
10671
10683
10660
10633
10632
10662
10697
10704
10669
10606
10543
10502
10495
10515
10552
10590
10615
10618
10600
10570
10544
10537
10557
10599
10644
10672
10683
10691
10711
10742
10766
10764
10739
10713
10710
10732
10765
10788
10795
10788
10775
10768
10775
10803
10842
10868
10859
10822
10794
10808
10866
10935
10975
10976
10958
10940
10920
10883
10833
10798
10808
10870
10954
11020
11047
11036
11008
10983
10975
10987
11009
11016
10996
10957
10931
10937
10961
10961
10914
10840
10788
10783
10807
10820
10808
10796
10811
10842
10842
10777
10668
10575
10544
10568
10603
10614
10604
10593
10585
10571
10547
10534
10560
10621
10672
10664
10591
10499
10447
10456
10496
10525
10530
10525
10525
10524
10507
10480
10473
10508
10567
10599
10570
10503
10460
10484
10551
10598
10581
10520
10476
10489
10546
10602
10627
10627
10615
10593
10553
10504
10473
10478
10503
10513
10496
10482
10506
10560
10594
10571
10515
10491
10530
10592
10607
10549
10474
10460
10523
10602
10624
10583
10536
10538
10583
10618
10607
10568
10546
10561
10590
10598
10576
10550
10544
10561
10586
10602
10604
10590
10562
10524
10494
10489
10512
10548
10583
10605
10614
10608
10586
10555
10531
10521
10515
10501
10482
10481
10512
10554
10560
10511
10445
10431
10495
10594
10649
10625
10560
10521
10534
10569
10584
10567
10545
10541
10551
10560
10568
10589
10624
10647
10626
10563
10493
10458
10461
10475
10475
10461
10454
10469
10501
10536
10561
10572
10567
10551
10537
10537
10544
10532
10483
10422
10402
10461
10568
10649
10643
10568
10494
10483
10535
10596
10619
10593
10544
10498
10473
10479
10519
10577
10614
10595
10524
10451
10432
10481
10557
10607
10610
10588
10571
10571
10572
10563
10542
10522
10514
10520
10538
10558
10565
10551
10520
10494
10492
10510
10525
10514
10489
10479
10507
10559
10601
10609
10593
10580
10586
10603
10612
10600
10564
10510
10452
10417
10428
10491
10581
10656
10692
10695
10686
10678
10661
10627
10585
10551
10531
10514
10490
10478
10502
10569
10648
10697
10701
10681
10663
10648
10617
10560
10504
10487
10521
10577
10606
10588
10543
10512
10515
10545
10577
10588
10573
10540
10507
10494
10505
10524
10530
10510
10479
10462
10471
10497
10518
10524
10524
10526
10531
10530
10522
10515
10520
10532
10537
10526
10506
10495
10501
10519
10538
10551
10562
10584
10632
10724
10863
11031
11190
11312
11399
11481
11584
11698
11781
11790
11715
11572
11381
11157
10923
10713
10562
10472
10408
10334
10258
10223
10263
10360
10453
10497
10498
10495
10510
10528
10519
10482
10451
10458
10501
10550
10578
10585
10585
10586
10588
10592
10606
10628
10635
10607
10548
10500
10505
10563
10626
10643
10607
10559
10545
10571
10602
10605
10579
10552
10550
10574
10606
10627
10627
10611
10584
10554
10531
10524
10537
10569
10615
10665
10698
10692
10646
10594
10587
10650
10751
10818
10798
10706
10604
10548
10542
10554
10563
10587
10650
10741
10806
10802
10737
10668
10638
10640
10638
10614
10600
10634
10717
10799
10835
10829
10825
10851
10885
10881
10828
10770
10763
10810
10864
10879
10859
10853
10886
10929
10932
10887
10847
10874
10965
11049
11054
10985
10916
10920
10997
11080
11106
11077
11043
11047
11080
11094
11059
10985
10913
10877
10882
10912
10947
10971
10971
10943
10897
10858
10849
10869
10889
10876
10820
10740
10668
10623
10606
10608
10624
10654
10687
10700
10674
10613
10548
10517
10532
10564
10575
10544
10491
10459
10477
10537
10603
10641
10639
10612
10585
10577
10592
10621
10640
10627
10575
10508
10468
10484
10549
10620
10652
10632
10582
10531
10495
10475
10476
10506
10567
10629
10655
10626
10566
10518
10508
10520
10521
10496
10465
10458
10483
10521
10554
10578
10601
10622
10630
10617
10593
10579
10576
10564
10521
10454
10400
10397
10453
10538
10611
10653
10666
10660
10637
10599
10555
10526
10529
10557
10586
10594
10583
10574
10587
10622
10656
10667
10646
10610
10579
10562
10555
10550
10547
10558
10591
10637
10676
10690
10673
10628
10559
10479
10409
10378
10403
10472
10545
10583
10575
10542
10514
10506
10518
10548
10592
10638
10662
10641
10583
10526
10504
10515
10525
10505
10465
10441
10458
10501
10537
10552
10560
10577
10595
10586
10543
10492
10471
10491
10529
10554
10560
10559
10556
10540
10502
10462
10454
10491
10546
10576
10567
10550
10562
10606
10648
10650
10613
10572
10558
10577
10602
10607
10575
10513
10443
10398
10406
10466
10543
10586
10574
10531
10500
10500
10512
10506
10480
10457
10459
10479
10501
10525
10568
10625
10662
10638
10562
10497
10497
10547
10570
10511
10406
10358
10435
10596
10727
10748
10676
10596
10564
10569
10566
10539
10522
10546
10595
10620
10587
10518
10470
10476
10524
10570
10578
10552
10515
10500
10520
10569
10622
10644
10618
10567
10539
10573
10656
10725
10724
10652
10570
10540
10574
10621
10626
10584
10538
10536
10584
10641
10668
10654
10621
10589
10556
10510
10452
10405
10391
10415
10455
10486
10496
10488
10474
10463
10461
10469
10484
10497
10499
10494
10498
10526
10571
10608
10612
10587
10554
10536
10527
10509
10476
10452
10467
10523
10581
10595
10553
10493
10464
10490
10549
10604
10635
10650
10671
10719
10805
10932
11091
11263
11425
11561
11665
11737
11766
11732
11631
11481
11315
11159
11008
10849
10674
10501
10355
10254
10202
10199
10243
10320
10400
10453
10473
10481
10504
10542
10572
10579
10576
10585
10611
10626
10603
10552
10515
10526
10575
10617
10622
10598
10572
10556
10536
10499
10464
10464
10509
10569
10603
10598
10584
10589
10609
10611
10574
10520
10491
10507
10548
10576
10576
10562
10553
10556
10560
10563
10575
10605
10641
10661
10659
10649
10653
10671
10678
10652
10603
10565
10568
10610
10655
10671
10650
10615
10594
10601
10628
10653
10661
10650
10632
10618
10615
10620
10632
10652
10686
10734
10785
10827
10850
10855
10846
10821
10777
10721
10675
10666
10702
10765
10824
10862
10881
10895
10905
10909
10905
10907
10927
10964
11001
11020
11015
10996
10972
10950
10932
10932
10959
11011
11063
11093
11092
11069
11032
10977
10899
10819
10780
10811
10899
10988
11020
10981
10898
10811
10735
10673
10634
10642
10707
10798
10856
10839
10760
10673
10630
10638
10666
10679
10669
10648
10628
10612
10598
10590
10594
10608
10615
10602
10568
10529
10506
10506
10521
10537
10540
10529
10513
10505
10518
10547
10573
10575
10548
10511
10487
10490
10511
10539
10567
10591
10602
10584
10535
10482
10466
10504
10566
10599
10571
10504
10454
10454
10491
10524
10530
10521
10524
10543
10561
10557
10541
10540
10571
10619
10649
10634
10581
10521
10483
10481
10509
10552
10591
10609
10602
10575
10546
10530
10534
10553
10578
10597
10601
10587
10562
10541
10537
10553
10573
10582
10579
10579
10597
10624
10631
10595
10523
10455
10431
10459
10509
10538
10524
10479
10433
10414
10427
10464
10508
10549
10577
10593
10602
10616
10641
10670
10683
10661
10607
10548
10511
10505
10510
10506
10497
10505
10542
10590
10605
10568
10508
10478
10504
10555
10576
10541
10483
10451
10466
10501
10519
10515
10512
10518
10515
10479
10427
10414
10477
10585
10660
10647
10563
10478
10443
10449
10459
10460
10477
10529
10597
10635
10625
10597
10589
10602
10600
10557
10496
10471
10505
10561
10585
10555
10504
10474
10473
10480
10475
10471
10485
10514
10530
10513
10479
10462
10481
10526
10576
10623
10666
10695
10683
10616
10517
10434
10400
10410
10436
10469
10517
10580
10622
10597
10501
10391
10350
10406
10514
10593
10604
10571
10544
10548
10563
10561
10536
10515
10522
10553
10581
10580
10553
10525
10522
10553
10601
10636
10641
10619
10595
10591
10614
10644
10659
10648
10617
10582
10555
10547
10563
10597
10631
10641
10619
10579
10545
10530
10523
10507
10484
10470
10472
10467
10430
10368
10332
10373
10488
10611
10666
10636
10569
10527
10525
10530
10507
10463
10436
10447
10479
10492
10466
10420
10387
10390
10432
10503
10587
10656
10678
10635
10548
10467
10433
10445
10465
10454
10414
10380
10391
10453
10543
10633
10709
10776
10845
10924
11016
11122
11245
11381
11521
11647
11732
11748
11682
11550
11391
11242
11105
10953
10758
10534
10336
10227
10225
10291
10362
10397
10407
10426
10477
10545
10589
10579
10519
10446
10409
10433
10504
10576
10602
10565
10491
10431
10424
10466
10517
10535
10507
10466
10454
10491
10553
10604
10626
10630
10636
10640
10617
10554
10481
10446
10473
10527
10546
10504
10437
10415
10466
10548
10596
10589
10567
10582
10641
10695
10692
10634
10571
10551
10579
10625
10659
10667
10647
10594
10517
10451
10440
10498
10590
10654
10660
10634
10620
10633
10648
10642
10623
10623
10651
10682
10684
10664
10656
10681
10717
10718
10676
10634
10645
10711
10781
10797
10756
10708
10701
10746
10812
10864
10885
10877
10850
10814
10794
10810
10859
10909
10930
10917
10903
10918
10959
10995
11001
10985
10974
10983
11000
11006
10991
10962
10927
10886
10842
10814
10819
10854
10891
10898
10874
10851
10859
10895
10925
10911
10848
10760
10684
10640
10631
10646
10667
10679
10669
10641
10611
10593
10588
10585
10570
10543
10516
10506
10523
10561
10602
10621
10606
10561
10512
10485
10486
10496
10497
10491
10492
10510
10526
10519
10492
10478
10504
10558
10591
10573
10518
10478
10481
10506
10513
10491
10470
10479
10507
10513
10478
10433
10430
10476
10528
10534
10493
10451
10450
10480
10495
10471
10436
10434
10475
10523
10539
10521
10508
10534
10590
10634
10633
10590
10538
10512
10525
10566
10609
10629
10616
10581
10548
10539
10548
10554
10539
10503
10460
10419
10380
10350
10360
10435
10559
10665
10686
10613
10512
10460
10480
10518
10514
10459
10408
10414
10474
10535
10555
10541
10535
10555
10577
10561
10498
10422
10376
10374
10403
10448
10512
10595
10677
10711
10667
10565
10466
10432
10471
10537
10569
10542
10483
10443
10448
10485
10515
10514
10489
10465
10457
10459
10454
10438
10428
10441
10469
10487
10475
10448
10440
10469
10519
10549
10536
10499
10477
10492
10522
10529
10497
10444
10407
10410
10444
10491
10535
10569
10584
10572
10532
10484
10456
10460
10479
10487
10475
10459
10463
10488
10506
10485
10422
10353
10323
10354
10425
10492
10520
10509
10490
10497
10539
10595
10629
10620
10575
10514
10454
10402
10363
10354
10392
10471
10552
10585
10554
10495
10464
10483
10523
10540
10520
10496
10509
10558
10603
10609
10580
10550
10537
10528
10497
10454
10439
10480
10553
10600
10585
10529
10488
10499
10547
10592
10612
10611
10602
10586
10560
10534
10533
10563
10595
10589
10538
10479
10459
10489
10534
10553
10541
10522
10510
10489
10435
10355
10296
10299
10364
10441
10487
10496
10493
10498
10505
10494
10465
10439
10441
10467
10496
10506
10502
10497
10499
10499
10486
10464
10453
10472
10517
10558
10562
10520
10452
10396
10373
10375
10372
10356
10352
10400
10514
10656
10764
10807
10818
10867
10994
11170
11328
11421
11463
11502
11567
11634
11649
11573
11409
11196
10976
10775
10599
10444
10311
10215
10175
10208
10300
10403
10461
10449
10399
10374
10415
10501
10574
10589
10552
10504
10478
10475
10477
10479
10497
10545
10607
10643
10620
10546
10462
10412
10416
10459
10506
10529
10516
10471
10413
10365
10350
10380
10450
10537
10607
10631
10605
10547
10491
10466
10479
10515
10550
10565
10556
10539
10532
10547
10582
10617
10631
10614
10582
10564
10579
10617
10648
10641
10593
10524
10470
10455
10489
10562
10649
10712
10721
10673
10599
10541
10524
10541
10571
10606
10650
10697
10723
10703
10641
10582
10574
10625
10697
10750
10774
10788
10803
10798
10756
10695
10670
10718
10812
10884
10887
10844
10818
10845
10899
10928
10917
10899
10914
10961
10995
10980
10928
10890
10901
10954
11011
11039
11033
11007
10975
10948
10933
10928
10925
10908
10876
10852
10855
10877
10878
10823
10724
10635
10606
10634
10671
10679
10668
10679
10726
10764
10736
10635
10524
10479
10523
10600
10639
10615
10568
10545
10556
10565
10541
10492
10454
10450
10467
10474
10462
10451
10465
10503
10544
10565
10563
10547
10522
10490
10466
10473
10519
10567
10562
10477
10356
10283
10315
10426
10532
10568
10530
10469
10433
10432
10452
10481
10518
10557
10578
10566
10535
10515
10518
10524
10506
10470
10452
10480
10536
10573
10568
10548
10550
10573
10573
10518
10440
10410
10461
10545
10578
10529
10455
10438
10495
10564
10573
10517
10458
10454
10499
10542
10548
10529
10513
10506
10489
10459
10446
10479
10546
10591
10570
10501
10444
10448
10498
10544
10553
10536
10523
10520
10509
10476
10439
10430
10459
10500
10523
10516
10500
10492
10491
10487
10478
10478
10494
10515
10518
10495
10465
10452
10459
10471
10472
10466
10467
10484
10506
10518
10522
10531
10552
10569
10555
10496
10413
10350
10336
10372
10431
10480
10503
10509
10515
10535
10563
10575
10551
10494
10436
10415
10439
10478
10488
10451
10399
10382
10424
10492
10532
10518
10476
10455
10485
10543
10585
10584
10549
10512
10491
10486
10482
10476
10474
10486
10510
10533
10540
10523
10491
10459
10441
10439
10434
10406
10354
10309
10316
10392
10506
10596
10613
10565
10501
10470
10485
10518
10537
10534
10528
10533
10548
10550
10524
10477
10435
10431
10474
10544
10600
10607
10565
10505
10468
10470
10499
10531
10553
10568
10583
10593
10589
10574
10566
10576
10591
10590
10562
10526
10506
10506
10507
10493
10474
10475
10499
10516
10495
10447
10419
10450
10527
10598
10623
10611
10596
10593
10579
10529
10454
10391
10371
10386
10407
10420
10441
10483
10534
10567
10567
10546
10520
10490
10446
10398
10378
10407
10464
10499
10486
10451
10446
10489
10539
10539
10475
10395
10357
10375
10417
10444
10452
10463
10495
10541
10586
10620
10648
10680
10732
10828
10991
11214
11440
11595
11642
11616
11592
11614
11653
11635
11509
11286
11025
10782
10580
10419
10299
10225
10204
10232
10295
10372
10438
10473
10472
10452
10439
10446
10466
10480
10488
10504
10534
10554
10536
10478
10422
10419
10480
10559
10598
10573
10513
10466
10459
10486
10525
10557
10566
10540
10486
10434
10427
10483
10570
10634
10642
10609
10576
10561
10551
10523
10484
10464
10481
10517
10535
10526
10515
10539
10596
10646
10649
10601
10541
10508
10515
10542
10569
10591
10615
10638
10652
10645
10621
10597
10581
10573
10564
10555
10561
10597
10658
10720
10752
10749
10728
10715
10717
10722
10715
10697
10688
10706
10739
10763
10760
10737
10718
10716
10726
10737
10750
10778
10821
10855
10856
10831
10817
10849
10917
10975
10982
10944
10903
10893
10903
10899
10873
10856
10893
10985
11085
11131
11102
11030
10959
10913
10890
10880
10891
10929
10980
11005
10969
10873
10764
10699
10704
10756
10808
10824
10805
10771
10744
10727
10708
10680
10643
10607
10576
10551
10532
10524
10527
10539
10548
10554
10562
10580
10600
10598
10554
10479
10406
10371
10381
10416
10451
10480
10508
10535
10548
10539
10517
10504
10511
10522
10509
10466
10421
10415
10465
10546
10619
10650
10636
10595
10549
10516
10508
10520
10534
10531
10503
10463
10439
10446
10476
10506
10514
10498
10468
10439
10428
10445
10490
10546
10586
10591
10562
10523
10500
10505
10529
10553
10563
10555
10537
10521
10518
10530
10544
10550
10547
10553
10581
10614
10617
10564
10480
10423
10439
10517
10597
10627
10604
10563
10536
10524
10512
10503
10519
10567
10621
10636
10597
10532
10489
10488
10507
10508
10479
10441
10424
10442
10489
10549
10602
10623
10596
10526
10449
10409
10424
10465
10493
10489
10473
10478
10509
10548
10571
10574
10564
10542
10502
10445
10397
10393
10440
10507
10552
10560
10558
10581
10633
10678
10675
10618
10539
10482
10458
10447
10424
10388
10364
10380
10439
10512
10565
10580
10566
10546
10527
10506
10473
10433
10402
10397
10414
10434
10443
10448
10468
10515
10575
10618
10621
10591
10550
10519
10501
10490
10483
10483
10497
10518
10532
10520
10482
10433
10400
10403
10439
10482
10505
10498
10479
10479
10512
10556
10575
10552
10507
10483
10502
10544
10566
10539
10479
10430
10424
10457
10494
10504
10486
10463
10464
10499
10557
10611
10637
10627
10590
10544
10507
10487
10478
10473
10472
10484
10520
10578
10636
10664
10636
10558
10464
10406
10421
10505
10613
10683
10675
10595
10492
10422
10417
10466
10530
10573
10577
10551
10514
10481
10460
10448
10441
10435
10436
10449
10482
10530
10575
10597
10585
10547
10501
10464
10443
10434
10434
10442
10459
10472
10466
10433
10387
10356
10363
10406
10461
10498
10504
10489
10472
10469
10483
10506
10524
10527
10519
10514
10523
10541
10548
10527
10484
10448
10446
10480
10527
10575
10642
10758
10927
11111
11258
11349
11413
11491
11586
11663
11682
11633
11535
11395
11203
10955
10692
10482
10368
10331
10312
10275
10238
10239
10288
10350
10392
10413
10442
10487
10517
10505
10465
10451
10501
10588
10650
10646
10601
10568
10572
10585
10570
10529
10504
10526
10578
10608
10578
10499
10420
10383
10400
10457
10524
10573
10587
10562
10520
10488
10484
10506
10537
10568
10598
10624
10629
10602
10555
10515
10502
10508
10513
10518
10546
10615
10699
10740
10700
10606
10528
10518
10567
10622
10644
10642
10645
10668
10689
10682
10651
10621
10613
10621
10623
10606
10582
10575
10595
10637
10683
10718
10734
10730
10718
10716
10741
10790
10836
10844
10800
10726
10667
10669
10740
10851
10946
10986
10967
10923
10893
10891
10902
10902
10889
10882
10899
10933
10957
10953
10933
10924
10939
10970
10998
11016
11024
11025
11016
11003
11001
11018
11035
11014
10945
10867
10845
10899
10976
10994
10928
10831
10782
10798
10819
10778
10679
10592
10581
10639
10707
10732
10717
10693
10671
10635
10576
10521
10505
10534
10574
10590
10581
10569
10565
10554
10523
10491
10496
10548
10605
10616
10573
10525
10522
10567
10613
10622
10605
10597
10612
10619
10583
10511
10451
10443
10479
10518
10527
10512
10502
10512
10532
10546
10550
10550
10550
10542
10523
10501
10496
10514
10541
10550
10527
10477
10423
10396
10419
10495
10599
10682
10704
10658
10581
10528
10529
10574
10626
10653
10646
10614
10574
10542
10529
10535
10549
10549
10529
10504
10504
10544
10605
10645
10638
10589
10527
10485
10473
10487
10517
10554
10587
10605
10604
10587
10566
10549
10541
10544
10559
10583
10606
10617
10612
10597
10577
10551
10510
10462
10431
10445
10505
10577
10622
10628
10618
10622
10635
10625
10564
10470
10400
10407
10490
10593
10646
10619
10543
10479
10474
10528
10602
10649
10651
10620
10585
10563
10551
10532
10498
10453
10414
10396
10411
10460
10524
10570
10566
10511
10446
10432
10497
10604
10681
10678
10611
10538
10504
10505
10510
10503
10501
10525
10564
10585
10572
10554
10569
10622
10667
10654
10583
10502
10461
10470
10500
10530
10558
10590
10609
10590
10535
10482
10472
10504
10532
10516
10467
10435
10452
10504
10545
10558
10561
10575
10591
10580
10532
10480
10466
10496
10535
10549
10541
10545
10579
10623
10647
10641
10626
10617
10610
10592
10569
10563
10579
10594
10585
10564
10574
10636
10706
10710
10620
10501
10448
10501
10599
10651
10626
10574
10562
10595
10616
10574
10485
10408
10387
10409
10435
10453
10483
10548
10635
10702
10719
10689
10636
10582
10536
10505
10503
10533
10576
10600
10589
10557
10531
10525
10530
10534
10537
10550
10573
10592
10588
10563
10539
10535
10547
10553
10528
10470
10400
10351
10348
10398
10485
10578
10648
10687
10710
10742
10797
10871
10953
11040
11138
11248
11362
11463
11544
11607
11650
11656
11603
11479
11302
11106
10916
10741
10581
10443
10348
10312
10331
10377
10421
10449
10466
10488
10522
10556
10573
10561
10530
10504
10502
10518
10534
10531
10518
10517
10544
10588
10623
10635
10635
10641
10656
10657
10627
10578
10547
10561
10610
10651
10652
10612
10563
10531
10524
10528
10535
10546
10564
10583
10594
10593
10593
10607
10634
10662
10673
10667
10655
10650
10654
10651
10628
10585
10546
10538
10567
10608
10626
10604
10563
10552
10603
10705
10805
10854
10842
10800
10772
10774
10789
10790
10765
10727
10702
10701
10713
10717
10704
10685
10685
10717
10763
10794
10792
10773
10771
10802
10846
10864
10846
10818
10822
10866
10921
10952
10960
10970
10990
10990
10938
10848
10794
10840
10972
11105
11155
11117
11058
11038
11058
11068
11040
11000
10996
11035
11074
11064
11009
10960
10961
11008
11051
11045
10990
10922
10878
10864
10865
10859
10837
10812
10799
10803
10807
10781
10714
10630
10583
10608
10686
10751
10744
10669
10582
10540
10554
10586
10600
10596
10598
10618
10640
10639
10612
10582
10574
10591
10618
10637
10647
10650
10645
10626
10589
10546
10514
10508
10529
10566
10602
10620
10613
10587
10561
10551
10554
10563
10568
10571
10575
10571
10548
10514
10498
10527
10593
10653
10672
10655
10640
10652
10669
10651
10589
10526
10515
10554
10592
10581
10538
10530
10603
10726
10810
10791
10683
10566
10518
10557
10645
10719
10738
10695
10619
10556
10546
10592
10657
10692
10675
10629
10596
10597
10617
10624
10604
10574
10560
10569
10589
10597
10583
10552
10519
10504
10524
10577
10636
10663
10639
10582
10536
10535
10575
10624
10656
10666
10663
10650
10623
10583
10549
10547
10582
10630
10663
10670
10664
10660
10659
10645
10609
10561
10523
10514
10538
10585
10637
10672
10675
10651
10618
10597
10591
10581
10554
10519
10504
10531
10586
10631
10636
10605
10567
10547
10544
10545
10540
10533
10537
10559
10591
10624
10650
10662
10658
10645
10634
10635
10643
10642
10621
10596
10595
10624
10656
10650
10595
10530
10512
10561
10638
10677
10645
10574
10527
10543
10604
10663
10680
10655
10611
10568
10536
10515
10509
10519
10542
10571
10603
10639
10675
10693
10675
10622
10567
10550
10585
10644
10683
10677
10645
10627
10643
10676
10693
10677
10641
10612
10604
10615
10631
10643
10650
10654
10656
10661
10674
10696
10722
10740
10740
10721
10692
10661
10637
10625
10630
10646
10665
10681
10692
10703
10705
10676
10601
10502
10431
10435
10510
10601
10648
10633
10594
10573
10581
10589
10571
10535
10514
10533
10586
10644
10681
10690
10674
10638
10588
10535
10498
10488
10503
10534
10577
10628
10679
10710
10705
10662
10600
10548
10532
10562
10637
10742
10854
10954
11044
11143
11264
11397
11508
11579
11631
11700
11789
11841
11781
11580
11291
11009
10794
10643
10525
10433
10391
10417
10494
10573
10620
10631
10619
10595
10567
10555
10583
10655
10730
10754
10709
10632
10582
10577
10590
10585
10566
10568
10611
10668
10695
10673
10629
10598
10588
10579
10563
10563
10611
10702
10789
10820
10788
10732
10700
10705
10721
10710
10660
10587
10527
10509
10542
10610
10681
10724
10727
10704
10685
10693
10728
10769
10790
10776
10734
10691
10675
10691
10718
10722
10689
10644
10627
10658
10712
10748
10748
10733
10733
10755
10773
10772
10768
10788
10834
10869
10859
10814
10782
10789
10809
10793
10731
10676
10698
10804
10931
11001
10994
10957
10944
10965
10986
10979
10950
10932
10949
10997
11056
11109
11144
11155
11137
11099
11063
11046
11047
11050
11042
11023
11006
11002
11013
11039
11074
11108
11126
11123
11116
11128
11160
11184
11165
11091
10995
10916
10871
10846
10830
10828
10855
10901
10934
10923
10874
10816
10776
10752
10727
10698
10675
10667
10667
10665
10666
10687
10726
10752
10736
10686
10646
10651
10692
10723
10713
10677
10652
10656
10669
10664
10647
10640
10657
10682
10691
10677
10656
10640
10631
10631
10651
10695
10736
10727
10650
10551
10508
10559
10660
10723
10706
10644
10599
10597
10604
10592
10573
10587
10642
10696
10703
10671
10654
10689
10745
10760
10709
10636
10609
10645
10697
10708
10670
10625
10618
10651
10693
10714
10707
10686
10669
10664
10673
10683
10680
10656
10625
10616
10643
10685
10705
10686
10658
10663
10710
10756
10752
10690
10614
10575
10583
10612
10635
10650
10667
10687
10694
10685
10680
10697
10731
10748
10725
10679
10649
10663
10704
10735
10734
10712
10686
10665
10636
10599
10567
10562
10593
10642
10687
10710
10711
10703
10705
10730
10773
10805
10791
10723
10634
10572
10560
10574
10579
10570
10577
10630
10709
10755
10728
10650
10589
10589
10637
10677
10677
10654
10645
10663
10687
10689
10673
10665
10679
10702
10710
10695
10676
10669
10677
10684
10683
10679
10680
10685
10682
10672
10667
10676
10691
10684
10640
10575
10529
10536
10595
10675
10734
10746
10715
10668
10638
10646
10684
10724
10736
10712
10676
10655
10660
10673
10674
10668
10679
10720
10771
10790
10753
10680
10618
10600
10620
10651
10675
10696
10718
10731
10713
10663
10613
10602
10639
10690
10715
10703
10686
10696
10737
10781
10804
10807
10810
10817
10808
10766
10705
10667
10683
10733
10759
10720
10631
10558
10558
10632
10728
10787
10784
10742
10697
10669
10655
10645
10639
10643
10662
10691
10715
10729
10729
10715
10686
10644
10607
10599
10629
10675
10696
10669
10613
10580
10605
10677
10742
10758
10726
10683
10656
10639
10610
10566
10533
10535
10565
10586
10575
10551
10557
10614
10698
10770
10813
10854
10928
11048
11197
11351
11489
11602
11681
11728
11764
11809
11860
11868
11776
11572
11303
11044
10841
10694
10583
10511
10490
10513
10539
10532
10501
10493
10542
10630
10704
10733
10734
10736
10737
10712
10657
10619
10651
10749
10839
10846
10771
10691
10680
10737
10791
10780
10703
10615
10563
10556
10578
10610
10644
10670
10680
10685
10716
10789
10873
10909
10861
10761
10683
10671
10702
10719
10692
10651
10644
10684
10743
10787
10808
10817
10811
10779
10723
10675
10673
10716
10765
10778
10754
10726
10722
10737
10747
10749
10763
10804
10856
10886
10876
10840
10802
10775
10761
10768
10815
10894
10964
10971
10906
10822
10791
10833
10897
10918
10888
10854
10872
10939
11001
11011
10968
10911
10881
10890
10934
11003
11077
11122
11113
11061
11019
11035
11098
11136
11086
10967
10879
10916
11078
11267
11365
11333
11225
11134
11110
11136
11163
11157
11122
11085
11068
11077
11100
11120
11120
11094
11044
10981
10917
10861
10825
10817
10837
10872
10896
10891
10859
10823
10806
10809
10820
10822
10809
10787
10760
10730
10702
10683
10680
10688
10698
10709
10731
10774
10821
10832
10776
10663
10546
10484
10499
10562
10633
10687
10730
10771
10804
10809
10777
10724
10674
10648
10644
10652
10665
10678
10694
10710
10729
10749
10768
10780
10776
10753
10721
10692
10674
10668
10671
10678
10685
10685
10678
10677
10700
10744
10774
10751
10673
10590
10565
10620
10706
10756
10747
10721
10730
10776
10800
10751
10645
10556
10548
10619
10709
10759
10760
10737
10713
10690
10670
10667
10697
10749
10783
10773
10736
10725
10768
10833
10859
10814
10730
10670
10669
10703
10721
10701
10664
10645
10654
10673
10680
10678
10688
10720
10758
10771
10743
10682
10624
10599
10621
10679
10744
10787
10792
10762
10721
10695
10696
10715
10733
10733
10720
10710
10714
10729
10734
10716
10680
10651
10647
10659
10661
10634
10592
10569
10593
10653
10715
10752
10765
10769
10770
10755
10716
10668
10640
10647
10663
10653
10607
10559
10554
10604
10675
10729
10754
10772
10798
10819
10804
10746
10671
10625
10633
10681
10738
10772
10772
10739
10690
10648
10635
10651
10679
10693
10690
10688
10711
10750
10774
10758
10711
10663
10636
10621
10604
10583
10581
10604
10631
10632
10605
10594
10642
10742
10828
10830
10747
10647
10612
10670
10777
10857
10867
10810
10726
10652
10610
10606
10637
10686
10733
10760
10765
10758
10753
10754
10759
10769
10785
10809
10833
10845
10836
10812
10781
10748
10711
10672
10641
10636
10659
10696
10722
10724
10709
10698
10699
10697
10673
10625
10578
10566
10601
10664
10721
10751
10759
10759
10751
10724
10677
10633
10620
10646
10684
10697
10676
10645
10635
10650
10663
10658
10645
10658
10709
10772
10805
10786
10735
10686
10655
10631
10602
10571
10556
10566
10591
10620
10651
10694
10751
10811
10865
10923
11003
11109
11222
11319
11400
11491
11610
11742
11842
11875
11839
11755
11635
11471
11259
11029
10830
10697
10621
10565
10506
10459
10454
10499
10570
10627
10655
10660
10658
10659
10663
10681
10719
10769
10798
10775
10705
10635
10617
10660
10726
10756
10723
10648
10577
10544
10556
10600
10662
10734
10801
10843
10845
10807
10753
10713
10705
10726
10752
10761
10746
10718
10697
10698
10722
10754
10777
10777
10750
10709
10672
10659
10681
10727
10773
10795
10785
10756
10729
10715
10713
10716
10724
10738
10757
10770
10766
10745
10723
10718
10737
10774
10815
10847
10861
10846
10804
10752
10720
10733
10788
10858
10914
10949
10976
11007
11033
11030
10986
10918
10861
10839
10851
10873
10886
10883
10881
10900
10954
11035
11118
11171
11177
11148
11116
11103
11108
11108
11088
11059
11041
11044
11058
11070
11080
11101
11138
11174
11184
11169
11150
11150
11160
11146
11088
11006
10945
10933
10954
10965
10944
10904
10880
10888
10917
10945
10966
10978
10977
10952
10898
10836
10796
10791
10802
10800
10771
10735
10713
10710
10706
10690
10675
10687
10731
10771
10762
10693
10605
10559
10588
10666
10734
10749
10715
10670
10646
10650
10664
10674
10678
10680
10679
10672
10660
10659
10675
10695
10692
10655
10605
10585
10616
10679
10732
10749
10739
10730
10731
10724
10695
10657
10642
10664
10703
10726
10726
10725
10741
10755
10722
10628
10520
10476
10535
10658
10762
10787
10738
10665
10618
10612
10640
10687
10735
10755
10726
10656
10594
10595
10680
10809
10915
10949
10908
10823
10727
10645
10589
10572
10597
10650
10707
10742
10744
10716
10671
10634
10625
10657
10716
10770
10791
10778
10755
10744
10738
10719
10680
10642
10630
10641
10651
10644
10636
10660
10723
10781
10780
10707
10611
10561
10586
10649
10696
10700
10682
10678
10697
10720
10720
10690
10647
10615
10606
10620
10646
10671
10684
10684
10681
10688
10704
10714
10707
10685
10668
10670
10685
10691
10676
10659
10667
10709
10757
10770
10732
10671
10631
10637
10670
10690
10671
10626
10594
10605
10653
10707
10735
10733
10718
10710
10708
10694
10658
10618
10607
10640
10698
10734
10722
10678
10648
10657
10692
10717
10709
10683
10666
10664
10660
10637
10607
10605
10655
10734
10796
10800
10748
10673
10611
10582
10587
10622
10677
10728
10748
10722
10669
10629
10634
10682
10743
10795
10828
10845
10843
10809
10743
10669
10625
10635
10686
10747
10788
10800
10788
10760
10725
10693
10673
10663
10655
10643
10638
10660
10715
10776
10805
10783
10731
10686
10663
10651
10630
10605
10603
10639
10698
10742
10749
10729
10703
10681
10658
10631
10614
10622
10648
10667
10656
10625
10600
10592
10586
10565
10541
10548
10604
10683
10735
10732
10696
10668
10666
10675
10678
10687
10728
10811
10914
11008
11093
11192
11318
11447
11543
11597
11639
11698
11759
11771
11695
11546
11376
11223
11083
10930
10759
10601
10493
10446
10445
10471
10517
10582
10651
10697
10703
10674
10637
10617
10625
10657
10703
10741
10747
10709
10645
10597
10597
10638
10678
10681
10653
10634
10659
10715
10759
10757
10720
10688
10692
10726
10753
10743
10698
10647
10623
10634
10667
10698
10716
10731
10753
10782
10802
10797
10766
10732
10713
10709
10703
10687
10677
10699
10758
10820
10840
10800
10729
10680
10685
10729
10772
10782
10758
10729
10723
10752
10804
10847
10856
10826
10788
10782
10826
10887
10905
10844
10734
10653
10663
10758
10871
10931
10922
10883
10868
10899
10958
11009
11029
11021
11002
10989
10993
11011
11030
11036
11026
11014
11017
11042
11081
11115
11133
11134
11125
11111
11098
11094
11108
11142
11184
11214
11220
11203
11179
11157
11140
11120
11096
11075
11066
11071
11077
11067
11029
10973
10923
10898
10897
10900
10886
10857
10832
10831
10854
10882
10895
10886
10859
10819
10765
10709
10678
10693
10746
10797
10806
10771
10729
10714
10726
10732
10713
10684
10678
10703
10735
10744
10727
10707
10702
10701
10685
10656
10642
10659
10692
10704
10682
10648
10639
10663
10693
10708
10708
10712
10720
10713
10680
10641
10630
10651
10667
10643
10596
10581
10634
10721
10770
10741
10672
10632
10647
10677
10670
10632
10620
10672
10760
10809
10778
10706
10664
10683
10725
10733
10697
10665
10679
10734
10782
10787
10762
10749
10766
10786
10773
10719
10656
10621
10621
10632
10629
10613
10605
10622
10664
10716
10762
10790
10792
10767
10725
10693
10696
10732
10773
10783
10748
10693
10653
10648
10663
10674
10665
10646
10631
10632
10649
10680
10718
10748
10754
10729
10693
10677
10694
10721
10717
10670
10608
10576
10588
10614
10621
10612
10628
10694
10784
10834
10810
10736
10674
10657
10661
10650
10620
10609
10650
10722
10768
10752
10696
10654
10652
10669
10666
10634
10604
10608
10642
10674
10676
10653
10631
10630
10649
10676
10704
10729
10740
10726
10693
10666
10670
10703
10735
10735
10704
10674
10677
10713
10752
10764
10740
10698
10655
10621
10599
10594
10614
10657
10706
10734
10723
10679
10627
10595
10596
10619
10643
10649
10640
10639
10670
10733
10795
10816
10779
10708
10646
10620
10619
10621
10620
10636
10686
10754
10793
10771
10711
10670
10694
10768
10834
10850
10819
10783
10766
10759
10733
10686
10648
10643
10664
10675
10660
10637
10644
10690
10744
10767
10753
10725
10704
10684
10646
10591
10549
10549
10580
10608
10609
10601
10615
10656
10688
10677
10629
10586
10584
10616
10646
10655
10655
10670
10695
10704
10678
10637
10620
10647
10702
10745
10751
10720
10672
10631
10619
10651
10720
10798
10851
10876
10908
10991
11128
11280
11400
11483
11562
11659
11754
11801
11773
11685
11562
11406
11199
10953
10726
10587
10552
10571
10576
10541
10500
10491
10515
10544
10556
10561
10580
10618
10657
10679
10684
10678
10660
10629
10608
10630
10709
10808
10859
10826
10734
10648
10610
10612
10625
10638
10666
10713
10753
10753
10714
10677
10680
10720
10755
10754
10725
10703
10707
10728
10743
10743
10738
10735
10731
10721
10707
10701
10706
10716
10726
10735
10744
10740
10711
10665
10639
10673
10763
10861
10910
10892
10833
10773
10729
10699
10682
10681
10696
10711
10713
10711
10731
10786
10852
10886
10877
10854
10853
10873
10877
10845
10801
10796
10846
10909
10930
10900
10868
10886
10955
11024
11050
11031
11000
10981
10975
10975
10984
11010
11044
11060
11047
11028
11039
11088
11142
11155
11117
11068
11056
11093
11148
11182
11177
11147
11112
11089
11085
11100
11124
11136
11120
11072
11011
10960
10934
10929
10938
10950
10952
10932
10889
10843
10825
10845
10880
10893
10868
10826
10797
10784
10761
10709
10648
10622
10651
10709
10751
10754
10736
10722
10708
10675
10623
10584
10594
10644
10686
10678
10634
10610
10642
10709
10752
10739
10690
10653
10647
10649
10630
10592
10571
10588
10628
10654
10650
10636
10646
10689
10736
10755
10736
10703
10685
10690
10702
10703
10689
10671
10666
10676
10695
10714
10724
10723
10712
10697
10683
10676
10672
10659
10628
10585
10555
10567
10628
10709
10760
10748
10682
10614
10592
10624
10677
10709
10709
10700
10706
10725
10728
10697
10653
10635
10663
10710
10729
10703
10664
10664
10716
10786
10821
10805
10764
10730
10706
10667
10607
10561
10577
10657
10751
10790
10757
10694
10653
10644
10635
10604
10571
10579
10635
10694
10703
10661
10623
10639
10702
10751
10743
10690
10642
10628
10632
10629
10625
10655
10730
10809
10832
10785
10715
10685
10706
10734
10722
10672
10623
10602
10595
10578
10554
10557
10608
10680
10717
10695
10639
10599
10597
10609
10605
10588
10583
10612
10663
10707
10727
10730
10727
10721
10705
10683
10667
10664
10665
10659
10645
10635
10636
10637
10625
10605
10601
10631
10682
10717
10715
10687
10666
10672
10694
10711
10716
10714
10708
10688
10648
10606
10595
10633
10699
10749
10754
10722
10690
10684
10704
10732
10752
10758
10749
10721
10679
10635
10611
10618
10655
10706
10751
10775
10771
10739
10692
10649
10628
10632
10652
10676
10702
10727
10741
10731
10696
10654
10632
10639
10656
10658
10639
10618
10620
10650
10690
10713
10710
10686
10654
10622
10601
10598
10617
10649
10675
10676
10653
10620
10595
10583
10581
10575
10558
10533
10519
10539
10601
10686
10750
10757
10707
10646
10622
10650
10704
10754
10800
10871
10987
11134
11271
11376
11460
11558
11683
11809
11891
11894
11811
11654
11449
11229
11029
10873
10755
10650
10536
10419
10330
10303
10350
10450
10570
10672
10726
10722
10673
10620
10600
10625
10668
10690
10677
10648
10636
10651
10675
10687
10682
10672
10672
10683
10696
10706
10710
10705
10687
10661
10644
10649
10670
10684
10678
10660
10657
10676
10704
10717
10715
10719
10740
10756
10730
10653
10568
10536
10585
10684
10774
10820
10828
10824
10817
10792
10747
10703
10693
10725
10772
10791
10766
10726
10716
10759
10829
10880
10878
10830
10775
10749
10756
10779
10798
10810
10819
10826
10814
10776
10728
10708
10742
10817
10886
10916
10912
10909
10928
10946
10927
10864
10797
10785
10849
10956
11044
11067
11024
10950
10889
10876
10924
11015
11106
11154
11146
11111
11094
11120
11167
11188
11158
11089
11028
11013
11054
11125
11184
11191
11141
11070
11034
11065
11128
11146
11065
10921
10815
10828
10943
11055
11065
10963
10824
10735
10718
10742
10766
10784
10804
10823
10818
10781
10731
10705
10717
10746
10761
10749
10719
10686
10663
10654
10667
10700
10733
10741
10712
10672
10652
10663
10681
10680
10663
10652
10658
10663
10638
10590
10563
10593
10666
10730
10742
10713
10681
10671
10664
10634
10584
10549
10557
10596
10635
10652
10655
10653
10640
10606
10568
10576
10667
10811
10920
10917
10811
10688
10639
10675
10732
10734
10667
10582
10540
10561
10618
10667
10690
10691
10677
10650
10614
10587
10602
10667
10753
10803
10776
10679
10572
10522
10558
10654
10751
10802
10795
10748
10693
10652
10637
10641
10649
10644
10626
10614
10640
10712
10799
10847
10816
10720
10616
10560
10563
10595
10615
10613
10610
10630
10674
10718
10734
10715
10675
10640
10624
10629
10643
10655
10659
10661
10672
10703
10751
10793
10807
10778
10721
10663
10628
10618
10619
10616
10606
10603
10615
10641
10669
10685
10685
10671
10645
10606
10565
10541
10556
10608
10666
10691
10668
10618
10578
10572
10595
10628
10659
10687
10708
10706
10669
10611
10566
10559
10584
10610
10623
10644
10698
10776
10824
10797
10701
10606
10578
10623
10690
10717
10694
10652
10630
10634
10647
10654
10655
10654
10651
10644
10644
10666
10708
10740
10726
10666
10601
10576
10600
10640
10660
10658
10663
10695
10740
10764
10752
10718
10693
10691
10702
10712
10720
10732
10749
10755
10739
10707
10682
10687
10718
10748
10745
10698
10626
10568
10556
10592
10650
10694
10704
10696
10694
10710
10722
10699
10636
10564
10520
10516
10529
10532
10531
10559
10631
10719
10763
10730
10652
10597
10607
10665
10712
10713
10684
10672
10696
10722
10701
10615
10500
10417
10402
10449
10533
10635
10750
10870
10983
11078
11170
11288
11444
11612
11743
11803
11804
11777
11742
11676
11547
11353
11134
10945
10810
10715
10630
10547
10487
10478
10522
10593
10652
10668
10638
10585
10545
10546
10589
10645
10681
10682
10668
10671
10700
10737
10746
10714
10654
10592
10543
10512
10505
10532
10593
10669
10725
10739
10718
10692
10681
10680
10675
10658
10642
10642
10661
10682
10690
10680
10657
10637
10632
10651
10691
10737
10764
10756
10720
10681
10659
10656
10656
10651
10646
10658
10693
10741
10785
10812
10820
10809
10780
10738
10692
10659
10654
10682
10738
10804
10849
10846
10789
10708
10652
10652
10700
10751
10770
10757
10744
10758
10801
10850
10886
10908
10922
10933
10939
10940
10942
10945
10944
10938
10932
10934
10944
10952
10957
10976
11031
11117
11193
11216
11179
11118
11075
11060
11050
11031
11017
11031
11069
11092
11078
11045
11035
11060
11086
11072
11024
10992
11014
11067
11095
11068
11010
10965
10939
10901
10839
10786
10789
10848
10900
10887
10811
10733
10708
10727
10746
10747
10753
10783
10816
10802
10728
10642
10612
10648
10698
10711
10694
10695
10739
10788
10778
10698
10598
10545
10554
10589
10609
10607
10598
10583
10545
10485
10442
10466
10566
10690
10766
10764
10710
10654
10625
10620
10625
10640
10665
10691
10696
10667
10621
10588
10588
10612
10633
10630
10607
10585
10585
10613
10651
10674
10667
10636
10609
10608
10633
10660
10666
10650
10633
10632
10643
10650
10643
10631
10630
10645
10665
10681
10692
10701
10703
10686
10651
10617
10613
10647
10694
10714
10690
10642
10603
10595
10614
10641
10664
10683
10699
10704
10684
10636
10575
10528
10520
10554
10611
10661
10680
10665
10639
10627
10645
10682
10710
10703
10659
10601
10562
10565
10606
10657
10687
10679
10641
10601
10584
10597
10627
10653
10662
10654
10638
10620
10600
10578
10556
10542
10545
10570
10612
10656
10689
10701
10691
10663
10627
10593
10577
10593
10638
10689
10709
10674
10596
10521
10493
10523
10583
10638
10671
10681
10668
10630
10574
10530
10533
10587
10651
10672
10636
10580
10560
10595
10657
10705
10720
10715
10704
10688
10665
10645
10647
10668
10683
10667
10623
10585
10576
10582
10578
10559
10555
10590
10647
10680
10663
10621
10599
10612
10638
10650
10654
10674
10706
10711
10661
10589
10568
10638
10753
10816
10774
10668
10591
10597
10666
10734
10759
10741
10692
10624
10553
10515
10542
10625
10704
10726
10692
10651
10643
10650
10624
10553
10488
10490
10560
10640
10668
10641
10603
10590
10592
10581
10554
10539
10555
10579
10573
10532
10497
10514
10578
10642
10658
10628
10585
10552
10525
10494
10468
10478
10537
10617
10676
10693
10682
10673
10684
10711
10757
10831
10943
11087
11237
11372
11489
11595
11691
11766
11805
11798
11736
11613
11426
11191
10947
10742
10604
10530
10497
10477
10459
10443
10438
10454
10495
10547
10585
10589
10562
10530
10515
10516
10513
10496
10483
10509
10582
10670
10721
10717
10682
10655
10651
10652
10636
10606
10582
10573
10569
10556
10544
10555
10594
10635
10643
10616
10590
10600
10639
10664
10648
10614
10612
10664
10734
10765
10740
10694
10674
10687
10696
10669
10612
10565
10554
10569
10582
10586
10598
10629
10667
10687
10690
10703
10746
10796
10806
10756
10678
10626
10623
10638
10628
10594
10584
10645
10763
10875
10919
10886
10817
10762
10740
10746
10766
10791
10815
10834
10853
10882
10920
10950
10944
10901
10854
10845
10882
10925
10931
10897
10870
10893
10963
11029
11050
11030
11009
11015
11041
11061
11068
11075
11092
11105
11094
11058
11021
11006
11014
11022
11012
10989
10971
10965
10962
10950
10926
10897
10870
10850
10839
10841
10851
10853
10836
10802
10773
10763
10761
10740
10691
10637
10614
10632
10668
10690
10691
10685
10682
10669
10628
10573
10542
10565
10624
10672
10675
10643
10609
10589
10569
10535
10500
10498
10539
10598
10636
10636
10620
10610
10607
10594
10568
10548
10553
10574
10579
10550
10509
10493
10516
10550
10560
10540
10522
10533
10564
10580
10561
10528
10523
10563
10626
10666
10662
10634
10623
10648
10694
10725
10718
10680
10639
10614
10600
10576
10534
10489
10473
10502
10560
10609
10630
10628
10623
10621
10608
10571
10529
10518
10552
10605
10631
10614
10585
10590
10633
10673
10667
10622
10585
10593
10631
10651
10625
10573
10540
10537
10539
10519
10494
10509
10582
10675
10721
10695
10635
10602
10621
10660
10668
10631
10581
10556
10565
10588
10599
10595
10582
10566
10548
10530
10520
10526
10541
10549
10544
10535
10534
10544
10557
10570
10588
10616
10646
10653
10623
10570
10529
10521
10539
10556
10559
10555
10559
10573
10583
10579
10569
10564
10566
10564
10551
10538
10544
10571
10603
10623
10628
10635
10647
10649
10621
10568
10526
10533
10585
10642
10654
10612
10545
10501
10509
10571
10658
10729
10744
10691
10592
10500
10460
10476
10513
10531
10528
10534
10574
10631
10665
10651
10608
10579
10589
10618
10634
10622
10603
10601
10624
10657
10686
10711
10734
10749
10740
10697
10635
10578
10551
10557
10588
10620
10632
10607
10551
10495
10478
10517
10588
10645
10655
10624
10580
10545
10519
10496
10481
10484
10506
10526
10527
10516
10520
10555
10599
10618
10599
10566
10554
10563
10562
10522
10461
10426
10451
10513
10557
10549
10512
10497
10532
10595
10636
10626
10584
10552
10564
10621
10701
10783
10860
10941
11037
11148
11263
11366
11449
11523
11603
11687
11745
11727
11601
11378
11109
10857
10660
10530
10456
10423
10415
10413
10406
10396
10399
10426
10471
10512
10532
10535
10540
10556
10569
10562
10535
10511
10518
10559
10609
10641
10649
10651
10661
10674
10668
10634
10583
10539
10520
10526
10547
10575
10603
10622
10622
10606
10589
10589
10611
10636
10639
10616
10584
10569
10583
10618
10654
10680
10689
10680
10655
10623
10600
10594
10601
10606
10610
10628
10672
10726
10749
10709
10617
10526
10485
10502
10547
10588
10619
10652
10687
10709
10708
10705
10729
10781
10817
10793
10712
10634
10626
10696
10789
10835
10809
10746
10694
10683
10711
10765
10830
10884
10902
10875
10827
10811
10854
10936
11000
11004
10960
10915
10905
10933
10979
11027
11075
11116
11130
11098
11027
10955
10918
10925
10961
11003
11040
11066
11067
11029
10957
10883
10848
10866
10908
10935
10926
10894
10862
10839
10818
10797
10782
10782
10794
10799
10784
10756
10733
10726
10724
10713
10692
10679
10684
10691
10675
10622
10559
10526
10541
10580
10598
10571
10526
10512
10553
10626
10677
10675
10627
10574
10542
10528
10519
10512
10523
10563
10615
10644
10633
10598
10573
10580
10610
10634
10640
10632
10622
10610
10584
10541
10499
10485
10508
10553
10596
10620
10624
10611
10586
10554
10526
10519
10537
10563
10571
10547
10506
10479
10491
10541
10596
10625
10616
10586
10568
10580
10615
10647
10655
10643
10633
10640
10657
10661
10640
10605
10578
10570
10570
10562
10543
10534
10552
10596
10647
10688
10710
10707
10671
10598
10510
10446
10440
10491
10563
10617
10643
10648
10641
10614
10562
10502
10474
10496
10548
10580
10571
10543
10541
10582
10632
10649
10622
10585
10578
10606
10636
10634
10598
10556
10534
10535
10548
10564
10583
10600
10599
10570
10524
10495
10507
10548
10579
10570
10529
10502
10520
10573
10617
10618
10580
10535
10511
10509
10514
10522
10543
10583
10623
10631
10596
10545
10523
10547
10591
10614
10606
10590
10594
10612
10613
10578
10534
10521
10552
10590
10585
10528
10467
10461
10521
10602
10646
10633
10588
10552
10545
10560
10578
10586
10577
10556
10535
10532
10557
10601
10636
10640
10618
10593
10583
10585
10586
10589
10608
10650
10699
10726
10718
10692
10668
10643
10599
10533
10484
10497
10576
10665
10690
10633
10544
10501
10535
10616
10678
10682
10633
10561
10495
10451
10442
10475
10535
10590
10602
10566
10510
10473
10479
10520
10572
10614
10636
10632
10597
10536
10476
10449
10473
10532
10589
10614
10606
10588
10584
10593
10590
10555
10494
10436
10413
10433
10482
10539
10599
10662
10724
10766
10780
10790
10845
10973
11151
11316
11416
11456
11493
11570
11672
11735
11703
11572
11387
11197
11019
10843
10667
10508
10398
10353
10366
10408
10445
10455
10435
10407
10402
10440
10508
10573
10609
10614
10610
10607
10591
10551
10503
10491
10544
10638
10712
10718
10668
10617
10604
10623
10635
10620
10596
10590
10600
10598
10568
10529
10522
10564
10624
10655
10631
10572
10520
10504
10524
10559
10595
10620
10631
10626
10612
10604
10614
10637
10661
10674
10675
10671
10662
10645
10621
10602
10604
10630
10662
10672
10651
10616
10594
10604
10638
10677
10702
10707
10697
10685
10686
10708
10746
10780
10784
10750
10696
10660
10669
10716
10767
10784
10761
10724
10715
10751
10814
10873
10904
10910
10909
10913
10921
10927
10931
10937
10944
10941
10920
10891
10877
10894
10934
10972
10990
10993
11002
11028
11058
11070
11056
11031
11017
11017
11020
11014
11002
10994
10993
10989
10971
10944
10918
10898
10873
10829
10772
10730
10729
10769
10819
10847
10839
10801
10750
10702
10671
10673
10707
10749
10757
10705
10612
10529
10502
10532
10577
10597
10587
10575
10587
10623
10655
10656
10624
10578
10542
10530
10546
10588
10643
10687
10693
10646
10562
10482
10447
10472
10535
10593
10613
10590
10546
10512
10504
10521
10550
10582
10613
10632
10623
10578
10513
10465
10466
10513
10574
10615
10626
10620
10601
10557
10478
10391
10355
10413
10547
10678
10729
10684
10591
10520
10504
10537
10595
10656
10704
10718
10688
10632
10587
10581
10600
10606
10582
10550
10543
10563
10575
10552
10516
10521
10584
10660
10680
10626
10555
10536
10578
10619
10600
10533
10489
10521
10602
10655
10630
10553
10494
10495
10542
10591
10613
10614
10611
10609
10603
10587
10565
10548
10545
10563
10600
10638
10648
10611
10542
10483
10472
10507
10550
10569
10567
10573
10597
10618
10609
10572
10535
10520
10518
10503
10477
10470
10504
10559
10587
10564
10522
10512
10547
10586
10582
10538
10506
10524
10579
10617
10603
10555
10520
10528
10568
10616
10656
10684
10689
10659
10597
10534
10509
10526
10552
10544
10496
10448
10439
10477
10529
10557
10552
10534
10529
10549
10582
10609
10612
10590
10554
10525
10517
10531
10553
10569
10570
10562
10551
10543
10551
10585
10643
10699
10719
10690
10640
10612
10625
10650
10646
10606
10572
10589
10650
10698
10678
10595
10513
10494
10548
10626
10670
10653
10589
10513
10460
10451
10485
10544
10596
10617
10604
10578
10559
10554
10566
10595
10637
10666
10646
10564
10459
10405
10442
10534
10595
10568
10479
10413
10429
10509
10583
10602
10573
10535
10510
10487
10456
10424
10413
10432
10466
10498
10527
10554
10568
10553
10512
10480
10502
10589
10702
10793
10851
10912
11020
11181
11362
11517
11625
11689
11724
11735
11721
11676
11588
11443
11238
10994
10757
10568
10440
10354
10290
10249
10245
10285
10356
10433
10496
10536
10555
10554
10548
10559
10598
10647
10663
10614
10517
10431
10410
10459
10536
10588
10597
10578
10557
10545
10542
10551
10579
10626
10674
10699
10690
10660
10627
10604
10587
10570
10552
10542
10545
10558
10567
10564
10548
10532
10532
10558
10601
10644
10669
10676
10680
10692
10700
10677
10609
10526
10486
10528
10633
10728
10744
10673
10577
10538
10585
10678
10741
10732
10676
10640
10666
10738
10791
10771
10687
10599
10570
10613
10689
10744
10762
10764
10776
10801
10816
10806
10782
10770
10777
10785
10770
10735
10710
10728
10790
10866
10918
10935
10930
10931
10949
10983
11018
11042
11044
11023
10983
10934
10889
10861
10859
10885
10933
10981
11008
11003
10977
10954
10951
10966
10982
10987
10986
10984
10981
10964
10924
10872
10829
10807
10799
10789
10771
10751
10740
10740
10747
10755
10756
10739
10690
10611
10529
10485
10504
10572
10645
10685
10680
10640
10581
10516
10461
10442
10474
10545
10613
10636
10608
10553
10507
10486
10485
10495
10513
10533
10547
10549
10549
10566
10602
10630
10616
10553
10479
10440
10456
10503
10546
10571
10586
10592
10578
10533
10477
10452
10480
10537
10577
10574
10552
10551
10585
10626
10638
10616
10581
10556
10543
10535
10537
10559
10596
10622
10610
10570
10540
10546
10571
10573
10535
10486
10475
10516
10570
10590
10565
10530
10519
10535
10553
10559
10565
10588
10618
10625
10592
10546
10530
10563
10618
10648
10628
10571
10507
10459
10437
10447
10495
10577
10668
10734
10749
10715
10652
10585
10534
10515
10533
10574
10603
10584
10518
10448
10421
10448
10495
10520
10518
10528
10579
10653
10692
10654
10560
10475
10447
10469
10489
10466
10416
10390
10424
10504
10580
10610
10591
10556
10536
10539
10552
10560
10558
10557
10563
10573
10578
10571
10553
10531
10509
10490
10478
10477
10491
10514
10534
10539
10536
10544
10582
10642
10684
10666
10581
10468
10389
10383
10437
10507
10553
10569
10570
10570
10566
10552
10529
10512
10511
10518
10519
10514
10517
10546
10593
10632
10640
10617
10583
10555
10534
10514
10499
10502
10531
10572
10603
10617
10626
10643
10664
10669
10646
10610
10590
10592
10592
10566
10520
10498
10534
10615
10687
10701
10660
10605
10577
10578
10583
10567
10533
10492
10456
10428
10417
10436
10481
10526
10538
10512
10483
10492
10547
10608
10630
10604
10560
10534
10527
10517
10489
10457
10447
10463
10480
10476
10459
10458
10489
10535
10559
10539
10493
10453
10443
10460
10486
10508
10521
10527
10538
10568
10632
10728
10834
10927
11002
11082
11196
11346
11504
11634
11713
11740
11719
11648
11526
11365
11188
11014
10844
10675
10517
10395
10330
10314
10320
10323
10329
10354
10406
10464
10501
10511
10511
10521
10542
10559
10565
10569
10583
10606
10623
10617
10594
10568
10549
10534
10519
10510
10517
10543
10571
10584
10580
10573
10578
10592
10603
10605
10605
10611
10613
10593
10546
10495
10474
10497
10537
10555
10536
10505
10499
10531
10579
10604
10593
10565
10554
10573
10609
10630
10615
10573
10534
10531
10574
10644
10700
10714
10688
10654
10644
10669
10703
10717
10702
10674
10655
10650
10647
10639
10635
10657
10710
10773
10808
10795
10746
10697
10680
10702
10745
10783
10800
10796
10786
10788
10811
10848
10877
10875
10837
10779
10735
10733
10776
10842
10904
10946
10972
10991
11011
11028
11034
11030
11022
11019
11020
11014
10998
10977
10973
11002
11059
11115
11133
11097
11019
10930
10862
10827
10822
10836
10851
10850
10821
10766
10707
10674
10674
10690
10690
10661
10626
10621
10665
10735
10784
10780
10721
10637
10562
10517
10509
10533
10570
10596
10590
10557
10525
10523
10548
10568
10548
10494
10452
10466
10533
10602
10623
10594
10557
10553
10577
10589
10556
10497
10460
10474
10519
10545
10526
10484
10460
10474
10506
10521
10509
10495
10506
10543
10573
10567
10527
10485
10473
10497
10537
10568
10574
10557
10531
10516
10526
10559
10598
10619
10610
10585
10566
10565
10567
10551
10516
10487
10493
10541
10610
10665
10690
10684
10658
10622
10589
10575
10584
10596
10578
10513
10433
10398
10444
10543
10624
10636
10588
10534
10514
10522
10527
10519
10519
10549
10592
10606
10568
10504
10470
10491
10543
10575
10564
10535
10528
10561
10614
10650
10646
10605
10543
10481
10437
10427
10449
10484
10509
10514
10513
10527
10555
10574
10564
10527
10492
10484
10505
10538
10563
10575
10575
10562
10542
10527
10535
10567
10597
10591
10543
10488
10475
10517
10579
10602
10564
10496
10454
10466
10509
10538
10534
10519
10527
10566
10607
10610
10564
10495
10449
10450
10489
10534
10554
10543
10517
10503
10518
10558
10600
10620
10611
10580
10549
10529
10523
10525
10529
10536
10543
10547
10545
10542
10549
10568
10588
10591
10573
10553
10560
10607
10669
10707
10695
10647
10600
10580
10582
10583
10569
10552
10551
10569
10585
10577
10544
10511
10499
10512
10535
10551
10553
10548
10535
10510
10476
10444
10435
10454
10482
10489
10461
10415
10388
10408
10467
10528
10554
10541
10512
10498
10506
10522
10526
10517
10509
10511
10522
10527
10524
10525
10543
10573
10605
10633
10676
10759
10881
11016
11131
11224
11318
11434
11563
11672
11729
11728
11670
11553
11372
11145
10924
10757
10652
10569
10471
10369
10309
10325
10390
10448
10467
10468
10487
10523
10537
10504
10455
10451
10509
10577
10587
10529
10470
10482
10564
10639
10635
10559
10483
10473
10526
10582
10596
10578
10565
10576
10584
10559
10504
10464
10485
10565
10655
10700
10676
10607
10536
10498
10494
10509
10526
10540
10551
10555
10547
10534
10539
10581
10650
10702
10693
10622
10545
10528
10586
10672
10715
10689
10627
10584
10583
10607
10626
10631
10629
10631
10634
10637
10648
10671
10696
10706
10698
10697
10730
10786
10817
10780
10689
10610
10609
10690
10789
10831
10786
10686
10598
10577
10639
10754
10864
10915
10897
10854
10851
10922
11033
11113
11117
11062
10999
10959
10936
10914
10904
10931
10998
11067
11085
11039
10964
10908
10889
10899
10928
10978
11042
11087
11072
10993
10897
10844
10852
10885
10901
10891
10873
10851
10803
10712
10604
10537
10548
10610
10666
10681
10674
10679
10696
10697
10666
10636
10653
10714
10756
10712
10581
10437
10362
10381
10452
10517
10554
10575
10592
10595
10574
10539
10522
10539
10572
10578
10536
10462
10406
10408
10470
10559
10630
10651
10620
10553
10478
10425
10418
10466
10556
10648
10695
10671
10592
10505
10458
10456
10470
10465
10443
10435
10469
10534
10588
10600
10572
10538
10520
10521
10527
10538
10564
10609
10651
10658
10618
10550
10494
10473
10486
10514
10544
10573
10601
10621
10617
10584
10533
10488
10475
10502
10557
10610
10637
10629
10595
10552
10511
10477
10456
10458
10487
10530
10563
10572
10564
10559
10563
10566
10551
10528
10520
10543
10574
10579
10548
10510
10507
10537
10556
10516
10426
10348
10345
10427
10547
10644
10684
10673
10634
10587
10550
10534
10538
10537
10507
10449
10402
10413
10484
10569
10608
10586
10543
10529
10556
10586
10571
10507
10432
10397
10421
10487
10556
10599
10608
10592
10564
10539
10528
10538
10562
10586
10590
10566
10520
10478
10469
10500
10552
10591
10595
10570
10542
10537
10557
10586
10604
10598
10571
10534
10503
10495
10514
10547
10575
10589
10602
10631
10671
10681
10624
10505
10389
10352
10420
10547
10651
10679
10637
10573
10528
10514
10515
10510
10489
10454
10417
10395
10396
10415
10442
10473
10518
10576
10625
10629
10575
10493
10436
10433
10460
10474
10467
10470
10514
10579
10606
10563
10484
10438
10453
10487
10482
10433
10395
10423
10504
10576
10603
10615
10675
10799
10945
11059
11138
11227
11356
11501
11612
11665
11680
11674
11625
11491
11270
11028
10844
10738
10652
10520
10348
10210
10183
10269
10394
10477
10487
10450
10407
10387
10400
10449
10528
10609
10651
10632
10568
10508
10488
10509
10539
10551
10540
10524
10520
10527
10537
10542
10541
10534
10523
10517
10527
10556
10593
10614
10602
10560
10510
10473
10461
10472
10506
10558
10616
10651
10637
10579
10513
10486
10507
10545
10554
10530
10513
10550
10636
10711
10713
10637
10545
10510
10546
10611
10648
10647
10641
10659
10692
10703
10675
10633
10618
10641
10668
10660
10612
10566
10567
10619
10683
10713
10695
10659
10644
10666
10702
10718
10698
10662
10648
10683
10760
10840
10882
10875
10842
10822
10838
10884
10930
10946
10918
10860
10805
10791
10838
10923
10994
11006
10963
10920
10933
11000
11061
11049
10961
10863
10835
10900
11005
11077
11077
11018
10933
10846
10772
10727
10730
10779
10840
10871
10850
10796
10738
10693
10655
10621
10595
10585
10586
10587
10582
10584
10606
10637
10653
10636
10597
10564
10550
10542
10526
10509
10517
10559
10608
10624
10596
10552
10523
10514
10501
10466
10426
10415
10443
10481
10488
10459
10428
10435
10483
10537
10559
10539
10502
10477
10480
10504
10536
10558
10561
10544
10517
10496
10492
10504
10520
10530
10538
10548
10560
10557
10529
10487
10459
10473
10527
10592
10628
10619
10579
10540
10525
10539
10568
10597
10614
10612
10592
10558
10528
10518
10530
10541
10523
10476
10434
10441
10502
10568
10579
10524
10461
10461
10536
10614
10613
10519
10410
10379
10451
10561
10625
10615
10574
10552
10557
10558
10537
10510
10507
10531
10555
10552
10531
10525
10548
10578
10579
10540
10486
10452
10452
10470
10488
10495
10493
10481
10458
10433
10425
10449
10497
10545
10571
10570
10550
10527
10507
10497
10503
10526
10557
10581
10587
10575
10547
10505
10454
10413
10412
10463
10547
10613
10625
10585
10534
10508
10509
10516
10509
10493
10482
10483
10490
10492
10497
10519
10568
10629
10677
10688
10657
10597
10532
10491
10490
10520
10549
10551
10526
10505
10523
10582
10645
10670
10648
10602
10564
10539
10510
10468
10432
10432
10470
10515
10522
10483
10434
10430
10488
10574
10623
10600
10524
10455
10440
10473
10510
10507
10465
10428
10435
10485
10530
10524
10467
10406
10387
10417
10462
10489
10494
10501
10519
10534
10526
10499
10481
10492
10516
10521
10500
10494
10558
10709
10907
11095
11246
11376
11510
11640
11725
11734
11676
11587
11489
11374
11218
11019
10809
10624
10480
10371
10288
10240
10240
10283
10341
10385
10408
10425
10454
10495
10527
10540
10539
10543
10562
10584
10592
10578
10553
10529
10513
10502
10493
10488
10492
10499
10499
10488
10475
10477
10497
10524
10535
10522
10501
10494
10510
10532
10538
10520
10493
10482
10500
10536
10565
10575
10569
10561
10560
10567
10575
10582
10590
10598
10600
10591
10574
10560
10563
10584
10618
10651
10673
10680
10671
10649
10618
10587
10562
10549
10545
10543
10535
10519
10506
10510
10543
10601
10663
10699
10693
10656
10625
10631
10679
10740
10780
10789
10784
10793
10822
10851
10850
10808
10747
10700
10694
10734
10810
10902
10987
11044
11061
11041
11003
10969
10945
10927
10914
10910
10923
10946
10960
10945
10902
10854
10825
10819
10823
10829
10843
10876
10921
10951
10941
10897
10853
10839
10846
10831
10759
10649
10563
10561
10648
10762
10822
10789
10691
10598
10562
10582
10617
10625
10602
10579
10582
10608
10625
10603
10547
10489
10464
10476
10507
10531
10538
10529
10507
10477
10455
10463
10514
10592
10651
10654
10605
10545
10515
10513
10503
10458
10394
10364
10399
10476
10533
10526
10472
10428
10436
10486
10531
10536
10507
10478
10468
10468
10458
10441
10445
10489
10559
10610
10602
10537
10455
10400
10386
10399
10423
10455
10503
10566
10622
10646
10633
10599
10570
10557
10560
10568
10574
10574
10560
10531
10495
10472
10477
10508
10544
10563
10560
10542
10520
10499
10483
10481
10501
10535
10557
10545
10499
10446
10417
10418
10433
10446
10457
10475
10499
10510
10493
10461
10446
10473
10530
10577
10587
10563
10537
10532
10546
10557
10548
10522
10494
10477
10471
10468
10458
10436
10412
10403
10428
10490
10563
10605
10591
10529
10461
10424
10429
10461
10494
10512
10516
10511
10503
10506
10531
10574
10611
10613
10567
10500
10457
10461
10498
10528
10521
10481
10436
10411
10410
10424
10447
10481
10523
10562
10582
10577
10561
10550
10552
10557
10549
10522
10493
10483
10499
10528
10546
10546
10547
10574
10628
10675
10668
10597
10499
10436
10437
10480
10511
10501
10464
10439
10448
10475
10496
10510
10532
10569
10599
10580
10503
10402
10337
10340
10396
10461
10500
10508
10502
10496
10491
10484
10475
10472
10480
10492
10499
10492
10466
10428
10393
10383
10413
10475
10533
10545
10495
10416
10367
10395
10501
10642
10768
10862
10938
11018
11106
11188
11255
11315
11391
11490
11588
11641
11611
11492
11312
11108
10906
10719
10552
10415
10314
10252
10229
10240
10284
10350
10414
10449
10441
10404
10371
10371
10405
10457
10503
10531
10539
10529
10503
10474
10462
10479
10517
10546
10541
10506
10479
10499
10572
10658
10703
10673
10587
10495
10448
10460
10502
10534
10534
10515
10512
10542
10592
10627
10620
10580
10538
10518
10521
10526
10519
10505
10501
10509
10516
10507
10484
10467
10476
10510
10551
10579
10591
10599
10618
10651
10685
10697
10667
10599
10519
10468
10476
10541
10630
10704
10741
10741
10719
10687
10656
10636
10636
10652
10667
10668
10658
10661
10694
10744
10780
10780
10760
10757
10790
10840
10868
10854
10815
10783
10774
10775
10775
10777
10802
10855
10912
10938
10915
10863
10823
10823
10859
10909
10948
10973
10993
11017
11044
11056
11033
10974
10902
10858
10865
10910
10946
10931
10864
10784
10739
10741
10768
10779
10754
10697
10629
10570
10536
10537
10571
10621
10650
10631
10566
10491
10450
10465
10516
10562
10572
10540
10490
10455
10453
10479
10509
10518
10507
10497
10512
10549
10577
10565
10511
10451
10424
10440
10472
10491
10490
10489
10510
10544
10565
10554
10516
10476
10454
10449
10451
10447
10434
10420
10418
10440
10493
10562
10612
10618
10579
10531
10509
10519
10532
10514
10464
10414
10395
10410
10436
10454
10472
10505
10551
10581
10570
10526
10486
10487
10531
10587
10618
10609
10568
10509
10448
10404
10394
10427
10488
10546
10577
10577
10564
10555
10552
10545
10529
10514
10509
10512
10508
10490
10464
10447
10447
10460
10470
10469
10464
10469
10491
10527
10560
10570
10548
10502
10459
10450
10483
10538
10571
10548
10474
10392
10359
10398
10483
10560
10584
10549
10484
10428
10401
10401
10409
10417
10429
10454
10490
10520
10531
10521
10507
10504
10515
10524
10514
10481
10437
10400
10382
10384
10404
10440
10485
10523
10532
10509
10476
10464
10491
10542
10577
10568
10520
10467
10444
10461
10497
10521
10513
10483
10452
10443
10460
10492
10526
10554
10578
10597
10601
10581
10537
10488
10460
10467
10496
10522
10523
10507
10497
10511
10547
10580
10586
10561
10520
10484
10465
10464
10471
10476
10476
10471
10460
10439
10407
10375
10361
10385
10446
10521
10572
10575
10532
10472
10425
10406
10413
10434
10455
10465
10454
10425
10398
10398
10432
10481
10513
10512
10494
10487
10499
10509
10487
10427
10356
10315
10323
10375
10451
10532
10605
10652
10665
10658
10671
10746
10895
11086
11270
11415
11516
11576
11590
11550
11463
11353
11237
11109
10942
10728
10505
10335
10258
10263
10302
10335
10351
10362
10378
10393
10399
10401
10414
10443
10481
10511
10525
10524
10510
10479
10433
10386
10358
10362
10389
10422
10446
10462
10476
10487
10487
10478
10471
10478
10495
10500
10483
10458
10453
10483
10526
10545
10521
10473
10441
10449
10486
10529
10559
10579
10594
10598
10576
10529
10479
10457
10480
10531
10579
10605
10606
10594
10576
10551
10522
10497
10486
10495
10517
10540
10555
10560
10560
10564
10578
10598
10610
10597
10558
10513
10495
10524
10588
10653
10691
10702
10705
10709
10706
10682
10643
10619
10641
10707
10788
10847
10866
10851
10819
10786
10769
10782
10826
10881
10911
10892
10836
10781
10763
10789
10836
10880
10910
10920
10905
10865
10816
10792
10816
10874
10927
10944
10930
10914
10911
10899
10853
10777
10713
10706
10755
10810
10820
10770
10696
10642
10631
10655
10690
10712
10706
10670
10617
10576
10573
10606
10649
10666
10647
10606
10566
10534
10504
10473
10449
10443
10455
10472
10482
10492
10512
10543
10567
10560
10511
10434
10356
10300
10274
10278
10309
10358
10419
10485
10549
10599
10616
10588
10519
10436
10376
10358
10379
10420
10463
10499
10520
10519
10496
10461
10435
10433
10452
10475
10484
10474
10447
10412
10385
10390
10439
10519
10587
10601
10556
10494
10465
10484
10515
10519
10490
10461
10459
10477
10478
10446
10408
10411
10473
10556
10606
10600
10562
10531
10523
10526
10519
10506
10505
10524
10543
10537
10500
10456
10442
10468
10510
10531
10511
10468
10436
10439
10469
10497
10492
10454
10409
10394
10428
10498
10569
10605
10592
10542
10483
10439
10420
10420
10426
10431
10436
10443
10452
10462
10472
10482
10489
10484
10458
10415
10377
10373
10408
10466
10514
10538
10546
10553
10559
10544
10497
10434
10390
10388
10416
10444
10457
10467
10497
10543
10577
10566
10510
10440
10391
10376
10385
10403
10426
10453
10478
10490
10483
10462
10441
10435
10449
10486
10534
10573
10577
10536
10470
10418
10410
10440
10478
10497
10501
10515
10550
10588
10596
10565
10518
10494
10513
10557
10589
10580
10536
10491
10475
10492
10518
10520
10489
10451
10444
10481
10533
10550
10512
10447
10410
10425
10467
10482
10449
10394
10370
10405
10475
10536
10557
10538
10496
10448
10402
10374
10382
10431
10498
10542
10536
10485
10423
10387
10386
10405
10423
10426
10420
10417
10427
10444
10455
10448
10422
10394
10379
10387
10413
10450
10495
10551
10621
10705
10798
10897
11001
11100
11188
11263
11334
11413
11494
11548
11541
11456
11305
11112
10898
10680
10481
10326
10235
10205
10213
10235
10264
10302
10345
10378
10398
10413
10438
10467
10476
10442
10380
10337
10350
10419
10504
10563
10580
10571
10552
10533
10517
10510
10519
10541
10559
10555
10527
10485
10444
10422
10431
10474
10539
10590
10591
10529
10435
10357
10329
10349
10395
10448
10502
10551
10585
10600
10606
10611
10610
10580
10511
10432
10396
10426
10491
10534
10530
10509
10515
10552
10582
10569
10534
10531
10587
10669
10714
10696
10649
10622
10628
10634
10613
10578
10565
10593
10640
10672
10677
10670
10668
10669
10658
10634
10612
10609
10628
10659
10697
10741
10782
10798
10774
10729
10705
10730
10789
10835
10837
10808
10790
10814
10869
10923
10953
10960
10959
10956
10945
10925
10906
10906
10929
10958
10964
10929
10862
10802
10791
10840
10919
10968
10945
10855
10744
10670
10656
10686
10726
10747
10740
10709
10666
10629
10613
10617
10621
10603
10567
10543
10561
10613
10658
10656
10609
10556
10527
10521
10512
10492
10479
10490
10514
10516
10480
10432
10422
10471
10551
10606
10602
10548
10475
10415
10385
10393
10435
10486
10511
10484
10414
10348
10330
10371
10449
10532
10598
10636
10636
10599
10540
10489
10466
10465
10465
10454
10446
10458
10486
10504
10494
10469
10460
10483
10521
10544
10539
10521
10508
10496
10473
10437
10408
10407
10433
10464
10481
10484
10489
10505
10530
10558
10582
10590
10569
10519
10468
10457
10500
10560
10571
10508
10416
10376
10425
10522
10588
10580
10530
10497
10507
10530
10525
10492
10466
10474
10499
10497
10451
10386
10350
10366
10417
10470
10503
10520
10529
10534
10530
10516
10499
10483
10466
10443
10415
10389
10378
10391
10427
10483
10546
10597
10617
10593
10534
10467
10423
10415
10436
10463
10479
10489
10506
10537
10572
10584
10557
10503
10451
10426
10432
10450
10462
10464
10458
10442
10408
10362
10330
10346
10413
10497
10546
10538
10498
10468
10465
10471
10460
10438
10433
10463
10509
10527
10497
10442
10410
10423
10461
10487
10487
10483
10499
10539
10578
10591
10571
10535
10496
10462
10439
10441
10476
10533
10577
10582
10547
10505
10484
10482
10473
10442
10409
10414
10474
10561
10621
10626
10596
10568
10560
10553
10522
10470
10432
10439
10483
10522
10522
10486
10448
10436
10449
10470
10486
10495
10490
10463
10410
10350
10318
10336
10388
10430
10436
10414
10398
10407
10435
10461
10476
10486
10493
10491
10472
10448
10444
10473
10512
10524
10491
10432
10385
10372
10385
10401
10409
10411
10419
10440
10486
10574
10714
10892
11072
11218
11321
11397
11469
11541
11605
11646
11651
11599
11466
11244
10968
10701
10499
10374
10304
10266
10261
10294
10344
10369
10342
10288
10268
10322
10427
10518
10545
10518
10487
10490
10522
10548
10541
10506
10466
10439
10433
10444
10467
10492
10508
10508
10498
10487
10480
10469
10451
10432
10428
10442
10458
10457
10438
10423
10437
10475
10512
10525
10518
10519
10542
10577
10595
10584
10559
10546
10557
10579
10590
10583
10569
10559
10559
10563
10567
10570
10570
10557
10526
10488
10469
10492
10552
10616
10647
10633
10593
10559
10546
10549
10554
10558
10564
10572
10568
10542
10509
10506
10564
10672
10779
10834
10824
10779
10741
10727
10722
10710
10695
10694
10716
10749
10775
10784
10784
10784
10785
10791
10811
10855
10911
10949
10943
10904
10874
10888
10939
10982
10981
10940
10895
10870
10861
10851
10842
10854
10896
10943
10955
10922
10874
10847
10841
10815
10740
10635
10565
10577
10656
10737
10763
10729
10673
10634
10624
10631
10634
10625
10604
10579
10560
10554
10562
10567
10550
10512
10473
10460
10474
10492
10491
10471
10459
10478
10520
10560
10575
10566
10549
10527
10491
10430
10356
10301
10298
10355
10446
10526
10557
10529
10470
10422
10414
10442
10475
10485
10472
10457
10455
10455
10439
10410
10396
10428
10499
10567
10593
10577
10551
10542
10545
10538
10514
10489
10482
10489
10485
10459
10431
10430
10465
10509
10528
10515
10486
10462
10446
10436
10436
10456
10497
10538
10552
10531
10492
10454
10425
10400
10391
10415
10474
10530
10534
10469
10385
10357
10419
10533
10617
10617
10545
10458
10413
10428
10485
10545
10578
10571
10531
10486
10463
10468
10487
10500
10508
10527
10568
10609
10612
10564
10493
10448
10454
10490
10512
10492
10439
10388
10365
10375
10406
10440
10463
10466
10447
10420
10401
10406
10433
10473
10513
10541
10545
10517
10466
10414
10387
10387
10391
10382
10365
10370
10418
10494
10560
10584
10571
10543
10516
10487
10453
10423
10416
10435
10463
10482
10487
10492
10506
10518
10514
10490
10457
10426
10396
10367
10351
10362
10398
10434
10448
10443
10448
10482
10527
10551
10548
10545
10569
10606
10608
10546
10445
10367
10347
10368
10389
10395
10412
10460
10522
10554
10537
10499
10485
10515
10566
10599
10599
10576
10547
10525
10520
10543
10590
10623
10596
10500
10380
10308
10320
10392
10465
10500
10502
10490
10471
10436
10394
10372
10393
10446
10492
10502
10484
10468
10466
10465
10448
10420
10408
10427
10464
10490
10484
10447
10393
10341
10310
10322
10382
10468
10533
10543
10503
10453
10424
10415
10400
10366
10331
10327
10359
10406
10437
10448
10464
10515
10612
10741
10878
11002
11107
11201
11301
11414
11525
11605
11629
11601
11544
11469
11361
11190
10951
10685
10450
10281
10177
10119
10104
10141
10226
10327
10405
10443
10455
10462
10466
10459
10440
10429
10447
10484
10513
10508
10476
10441
10425
10426
10431
10434
10436
10442
10451
10463
10481
10502
10515
10509
10488
10476
10489
10519
10535
10514
10466
10420
10394
10381
10373
10380
10424
10506
10584
10608
10559
10474
10412
10403
10436
10474
10490
10479
10453
10433
10440
10487
10560
10620
10632
10598
10556
10546
10569
10592
10583
10545
10506
10483
10474
10470
10480
10518
10576
10623
10641
10650
10681
10734
10757
10705
10597
10513
10519
10603
10689
10721
10712
10711
10732
10740
10702
10642
10627
10691
10796
10872
10886
10864
10852
10856
10849
10821
10798
10814
10862
10898
10890
10854
10832
10842
10863
10871
10867
10874
10895
10905
10887
10858
10854
10881
10900
10874
10814
10771
10771
10779
10739
10643
10554
10540
10596
10656
10663
10632
10620
10646
10659
10598
10475
10378
10389
10499
10617
10656
10607
10528
10474
10453
10439
10414
10392
10393
10420
10459
10497
10531
10557
10563
10539
10493
10447
10423
10417
10411
10393
10369
10355
10360
10380
10399
10412
10420
10431
10447
10467
10487
10504
10519
10535
10545
10540
10505
10445
10389
10375
10421
10501
10559
10559
10505
10438
10393
10374
10372
10384
10419
10469
10502
10481
10404
10316
10270
10288
10351
10424
10491
10543
10566
10536
10460
10389
10379
10439
10511
10527
10475
10415
10411
10466
10521
10528
10499
10492
10538
10601
10619
10566
10476
10400
10363
10352
10358
10391
10455
10522
10538
10478
10377
10307
10312
10373
10437
10470
10477
10482
10484
10465
10420
10375
10364
10391
10426
10433
10408
10378
10370
10386
10411
10433
10454
10476
10491
10488
10468
10449
10440
10428
10395
10343
10310
10339
10431
10541
10606
10600
10547
10487
10441
10403
10361
10329
10333
10387
10468
10533
10548
10511
10447
10388
10356
10362
10402
10451
10479
10463
10415
10371
10368
10404
10450
10470
10463
10450
10448
10449
10432
10399
10383
10408
10455
10468
10406
10296
10223
10251
10367
10486
10529
10487
10416
10378
10389
10420
10440
10450
10469
10504
10547
10582
10604
10609
10584
10518
10428
10364
10371
10443
10515
10519
10452
10385
10395
10488
10587
10606
10527
10411
10338
10333
10367
10397
10415
10437
10470
10487
10457
10383
10305
10276
10312
10390
10464
10502
10497
10465
10425
10395
10383
10390
10402
10410
10410
10410
10421
10444
10472
10491
10490
10462
10408
10346
10312
10335
10414
10501
10536
10492
10400
10325
10313
10354
10407
10449
10498
10589
10729
10879
10989
11048
11093
11170
11293
11425
11513
11529
11480
11393
11281
11145
10981
10795
10605
10433
10296
10208
10175
10187
10225
10264
10296
10330
10379
10435
10473
10470
10429
10381
10353
10346
10344
10334
10329
10353
10410
10475
10512
10510
10490
10475
10466
10443
10401
10367
10381
10450
10530
10566
10540
10490
10467
10482
10495
10465
10394
10333
10334
10398
10482
10536
10541
10508
10463
10424
10406
10422
10471
10529
10559
10543
10496
10454
10440
10447
10450
10441
10435
10454
10498
10547
10576
10580
10569
10556
10547
10547
10560
10588
10616
10623
10596
10542
10488
10454
10445
10457
10492
10550
10620
10675
10691
10673
10652
10659
10691
10719
10719
10696
10676
10680
10703
10729
10749
10770
10793
10803
10781
10729
10687
10692
10750
10822
10859
10849
10820
10808
10825
10851
10865
10868
10880
10907
10935
10939
10909
10861
10818
10783
10746
10701
10669
10672
10716
10769
10790
10763
10704
10647
10606
10579
10561
10561
10586
10623
10631
10580
10489
10414
10408
10468
10538
10558
10517
10454
10418
10425
10452
10470
10466
10451
10443
10448
10465
10486
10496
10477
10419
10331
10249
10212
10237
10307
10382
10431
10439
10416
10380
10353
10352
10379
10421
10456
10470
10466
10457
10447
10431
10405
10382
10382
10408
10436
10432
10390
10348
10354
10420
10503
10540
10499
10413
10347
10350
10417
10498
10536
10504
10421
10338
10296
10308
10348
10383
10398
10409
10441
10492
10535
10539
10506
10471
10465
10487
10500
10473
10413
10362
10354
10390
10437
10462
10460
10441
10423
10410
10404
10409
10425
10444
10452
10440
10417
10401
10401
10408
10406
10391
10377
10385
10426
10484
10532
10540
10499
10429
10365
10341
10370
10433
10490
10506
10472
10408
10348
10315
10313
10324
10332
10330
10329
10346
10387
10445
10495
10513
10490
10442
10395
10370
10377
10408
10450
10484
10491
10461
10399
10331
10287
10288
10333
10402
10471
10525
10558
10563
10538
10489
10431
10380
10347
10336
10342
10360
10377
10380
10363
10345
10352
10399
10458
10481
10438
10354
10296
10316
10406
10506
10552
10529
10473
10434
10428
10440
10444
10430
10409
10396
10399
10417
10446
10474
10482
10458
10405
10351
10328
10351
10406
10464
10502
10515
10512
10501
10486
10472
10464
10465
10469
10469
10465
10464
10471
10479
10468
10429
10372
10321
10293
10291
10306
10336
10382
10445
10504
10533
10518
10474
10435
10420
10421
10417
10403
10399
10428
10481
10519
10503
10433
10355
10317
10332
10364
10372
10347
10321
10335
10394
10464
10504
10493
10447
10397
10367
10366
10392
10437
10483
10510
10509
10497
10514
10596
10743
10917
11067
11169
11237
11307
11398
11491
11544
11520
11407
11222
10998
10775
10588
10456
10373
10313
10251
10190
10163
10201
10302
10425
10514
10539
10510
10461
10418
10391
10375
10367
10367
10372
10377
10383
10398
10425
10451
10453
10428
10401
10408
10462
10531
10566
10544
10484
10427
10392
10373
10357
10353
10377
10427
10471
10476
10444
10416
10425
10464
10494
10489
10465
10458
10481
10513
10527
10525
10530
10555
10575
10556
10499
10441
10423
10442
10460
10450
10429
10435
10481
10536
10553
10526
10490
10484
10508
10533
10539
10539
10557
10599
10639
10650
10629
10601
10583
10569
10544
10512
10495
10514
10558
10598
10614
10614
10622
10651
10688
10714
10728
10740
10759
10774
10769
10742
10711
10701
10722
10760
10800
10834
10864
10888
10893
10869
10824
10783
10771
10788
10814
10825
10820
10815
10820
10828
10822
10796
10774
10782
10823
10867
10869
10815
10735
10678
10668
10690
10706
10694
10663
10634
10618
10605
10583
10553
10526
10510
10499
10486
10478
10495
10542
10591
10595
10527
10412
10311
10278
10316
10381
10422
10429
10435
10470
10528
10564
10540
10460
10376
10335
10345
10371
10381
10380
10401
10462
10531
10553
10500
10400
10313
10284
10310
10356
10390
10409
10419
10425
10422
10420
10435
10475
10521
10536
10499
10430
