545
545
545
545
545
547
547
549
551
553
557
561
565
569
573
577
581
589
593
599
603
607
613
615
617
617
619
619
619
615
611
609
603
599
589
583
579
573
567
561
557
549
545
541
537
535
533
533
533
533
535
537
539
541
543
547
549
553
557
559
563
565
569
575
577
581
583
587
589
593
601
603
607
611
615
623
625
629
631
635
641
643
645
647
649
649
651
651
651
651
649
649
647
645
643
641
639
637
635
629
625
621
617
613
603
597
591
583
577
561
551
541
529
517
505
493
465
449
435
419
405
373
355
339
323
307
289
273
243
229
213
197
181
153
139
125
113
99
75
65
53
43
33
27
19
9
3
-2
-2
-4
3
9
13
25
37
27
17
-20
15
51
103
153
139
225
311
423
535
661
789
1037
1133
1231
1479
1727
1773
1647
1521
1417
1313
329
-124
-578
-996
-1414
-1512
-1610
-1578
-1442
-1308
-1220
-1134
-1072
-1028
-984
-940
-896
-864
-834
-804
-810
-818
-798
-780
-742
-730
-718
-708
-698
-680
-670
-662
-652
-644
-636
-630
-620
-614
-610
-606
-602
-596
-594
-592
-590
-588
-586
-586
-586
-584
-584
-582
-582
-578
-576
-574
-570
-568
-558
-552
-548
-542
-536
-528
-520
-502
-492
-482
-470
-460
-436
-424
-412
-398
-384
-368
-354
-322
-318
-316
-298
-282
-246
-226
-206
-184
-164
-120
-96
-74
-50
-28
-4
19
67
91
115
139
161
207
227
247
267
287
303
319
349
363
377
387
399
419
427
435
441
447
451
455
461
461
461
459
457
449
443
437
429
423
405
393
383
371
359
347
335
309
295
283
271
259
239
229
219
211
201
195
187
175
171
167
165
163
161
161
159
161
161
161
163
163
165
165
167
167
167
169
169
171
171
175
177
179
183
185
189
193
203
209
215
221
227
241
251
257
263
275
279
285
289
293
295
299
303
303
305
305
307
309
309
311
311
313
313
315
319
321
323
325
329
335
337
341
343
347
353
355
357
359
361
363
365
367
367
367
367
367
369
369
369
369
369
369
371
371
373
375
375
377
381
383
385
387
389
391
393
399
401
405
407
411
417
421
425
429
435
447
453
459
467
475
481
489
507
515
523
531
539
555
561
569
573
579
583
589
595
597
599
599
599
597
595
595
591
589
583
579
575
571
567
563
559
551
547
543
539
535
529
525
521
517
513
509
505
497
493
491
487
483
477
473
471
469
467
465
463
463
463
463
465
467
471
473
475
477
481
489
493
497
501
505
507
511
519
521
525
527
529
533
533
535
537
539
539
539
539
539
539
539
539
537
535
535
533
531
525
521
517
511
507
499
493
477
467
459
449
439
419
407
395
383
373
361
351
331
323
315
307
301
291
287
283
281
281
281
281
283
285
287
289
293
299
301
305
307
309
315
317
319
321
325
329
333
337
343
349
353
357
381
371
361
385
409
377
423
469
453
437
525
613
849
983
1117
1271
1425
1677
1771
1867
2171
2475
2381
2289
2085
1975
1865
1501
1137
303
-12
-330
-552
-774
-936
-898
-860
-748
-636
-500
-364
-162
-66
27
51
73
79
113
147
141
135
145
155
171
179
185
191
197
205
211
215
221
225
235
241
249
255
261
269
283
289
297
305
313
327
333
341
347
355
361
367
379
385
391
397
403
415
421
429
437
447
455
465
489
501
515
529
545
577
579
581
603
625
671
693
717
739
761
781
803
843
857
873
887
903
931
943
955
965
977
985
995
1011
1017
1023
1029
1035
1045
1047
1051
1053
1057
1059
1059
1061
1061
1061
1059
1059
1057
1053
1051
1047
1045
1037
1031
1027
1019
1013
1005
999
981
971
961
949
939
913
899
887
873
859
831
815
801
785
771
755
741
711
697
683
671
659
635
623
613
603
593
585
577
563
557
553
547
543
537
535
533
531
529
529
529
529
529
529
529
531
533
533
535
535
537
541
543
545
547
549
551
555
563
567
571
575
581
593
599
605
611
617
623
629
641
647
655
661
667
677
681
687
691
695
701
703
707
709
711
711
713
713
711
711
709
707
701
697
695
691
687
681
677
667
661
657
651
645
635
629
625
619
615
607
603
599
595
593
589
587
581
579
577
573
571
567
565
563
561
561
559
559
557
557
557
557
557
561
563
565
567
569
575
579
583
585
589
591
595
599
601
603
603
603
601
597
595
591
587
583
579
567
559
553
545
539
527
519
513
507
501
491
485
481
477
473
469
467
459
457
455
451
449
445
443
441
437
435
433
433
429
427
427
425
425
423
423
423
423
423
423
423
421
419
419
417
417
413
409
407
403
401
393
389
385
381
377
373
369
363
361
359
357
355
357
357
359
361
365
367
371
379
383
389
393
397
405
407
411
413
415
417
415
415
411
409
405
401
391
385
379
371
365
351
343
337
329
323
317
311
301
297
293
289
287
281
279
279
277
275
273
273
273
271
271
271
271
271
271
273
271
271
273
279
285
289
295
307
319
303
277
251
285
321
433
411
391
485
579
841
1003
1167
1345
1523
1691
1859
2437
2591
2745
2755
2767
2185
2021
1859
1479
1099
743
389
-152
-296
-440
-456
-474
-56
-64
-74
-50
-28
11
49
131
165
197
181
163
195
209
223
235
259
263
269
275
283
289
295
305
309
313
315
319
325
327
331
333
337
339
343
351
353
357
361
365
373
377
383
387
393
405
411
419
425
433
441
449
465
473
483
493
503
523
533
543
553
563
573
585
607
617
629
639
651
673
685
697
709
721
743
755
767
779
791
803
815
837
847
859
869
881
903
913
923
931
941
949
959
975
981
989
995
1001
1011
1015
1019
1021
1025
1029
1029
1031
1031
1031
1029
1029
1023
1019
1015
1009
1005
989
979
971
961
951
937
925
897
881
865
865
865
825
803
783
761
739
717
695
651
629
609
589
569
531
513
497
481
467
441
429
419
409
399
389
381
369
363
357
353
349
343
341
341
339
339
339
339
339
341
343
343
345
349
351
355
357
361
369
373
377
381
387
393
399
413
421
429
437
447
465
473
483
491
501
509
519
533
539
547
551
555
561
561
563
561
559
551
545
539
531
525
515
507
485
475
465
453
443
421
411
401
391
383
375
367
353
347
341
337
333
327
325
325
323
323
323
325
327
329
331
333
337
345
349
355
361
367
381
389
397
405
415
423
433
453
461
471
479
489
503
509
515
519
525
527
529
529
527
525
521
517
505
497
491
483
475
459
449
441
433
427
421
415
407
403
401
399
399
401
403
407
411
417
421
427
439
445
453
459
465
479
483
489
495
501
509
513
517
519
521
523
527
529
531
533
533
535
537
537
539
539
541
541
541
541
541
541
539
539
535
531
529
523
519
505
495
487
477
467
455
443
415
401
387
371
357
327
311
297
283
271
259
249
233
227
219
215
211
207
207
207
209
211
219
225
229
235
239
249
259
263
269
273
277
283
285
289
289
291
291
293
293
291
289
287
287
281
277
275
271
269
265
261
255
251
247
243
239
239
239
241
241
241
249
257
267
277
287
267
287
309
291
273
359
419
481
475
469
573
679
951
1111
1273
1419
1567
1813
2127
2443
2429
2415
2321
2283
2247
1883
1521
1085
649
5
-200
-408
-456
-504
-374
-254
-134
-126
-120
-86
-52
29
65
101
129
155
137
153
169
181
193
213
221
227
231
235
241
251
253
257
259
263
267
271
275
277
281
285
291
301
307
313
319
325
341
347
355
363
373
391
399
409
419
429
437
447
469
479
491
501
513
535
545
557
569
581
593
605
629
641
653
665
677
701
711
723
735
747
757
769
791
801
813
823
835
857
867
877
887
899
919
929
939
949
959
969
979
999
1009
1019
1027
1037
1055
1063
1071
1079
1087
1093
1099
1111
1113
1117
1119
1121
1119
1115
1113
1107
1103
1087
1075
1065
1051
1039
1023
1009
1015
993
973
949
927
881
857
833
809
787
765
743
701
685
671
655
641
613
601
589
577
567
549
539
531
523
515
507
499
485
479
473
467
461
451
445
441
437
433
429
427
425
425
425
425
427
433
437
441
445
451
461
467
473
479
485
489
495
505
509
513
515
519
523
525
527
527
529
529
529
531
531
531
531
533
533
533
535
535
535
535
535
535
535
535
533
533
531
529
527
525
523
517
515
513
509
507
503
501
495
493
491
489
487
483
481
481
481
481
479
479
479
479
481
481
481
481
481
483
483
483
483
483
483
483
483
483
483
483
481
481
481
481
479
477
475
473
473
469
467
463
459
457
453
451
443
439
437
433
431
425
421
419
417
415
413
411
411
411
411
411
413
415
417
419
421
425
429
433
441
445
451
457
463
473
479
485
489
495
505
509
515
517
521
523
527
529
529
529
527
527
521
517
515
509
505
497
491
479
471
463
455
449
433
425
417
409
403
395
389
379
373
369
365
361
357
357
357
357
357
363
365
369
375
381
387
393
407
415
423
431
441
457
465
473
479
487
493
499
509
511
513
513
515
511
507
503
497
493
479
469
461
451
441
429
419
399
387
377
367
357
339
331
323
315
307
301
295
285
281
277
273
271
267
265
265
265
267
271
273
277
279
281
285
291
309
323
339
355
371
363
337
311
347
383
437
493
643
637
633
765
899
1225
1407
1589
1767
1945
2433
2621
2811
2895
2981
2717
2455
2251
1839
1429
939
449
-464
-610
-756
-778
-800
-684
-568
-294
-268
-242
-200
-160
-74
-42
-12
-40
-68
-52
-38
-10
1
11
19
27
43
55
65
77
87
109
121
133
147
159
173
187
213
227
241
253
265
291
303
315
325
335
345
355
371
377
385
391
397
405
409
415
417
421
429
433
437
439
443
447
453
463
467
473
479
487
501
509
519
529
539
549
561
585
599
613
627
641
673
675
679
697
715
753
773
795
815
837
859
881
923
943
965
983
1001
1033
1045
1059
1071
1083
1093
1103
1119
1125
1131
1133
1137
1141
1139
1139
1137
1135
1125
1117
1111
1101
1091
1079
1069
1041
1047
1055
1037
1019
973
947
923
909
895
855
817
739
699
661
625
591
529
521
515
491
469
449
429
409
397
387
379
371
357
351
347
345
343
343
345
347
351
355
359
365
377
383
389
395
403
415
421
429
433
439
445
451
459
461
465
467
471
477
479
481
483
485
489
491
493
495
497
499
503
507
509
513
515
517
521
521
523
523
523
523
523
521
519
517
513
511
507
503
501
497
495
491
489
489
487
487
487
487
491
491
493
495
499
503
505
509
511
515
517
521
525
525
527
529
531
531
531
533
533
533
531
531
531
531
531
531
531
531
531
533
533
533
533
533
533
531
531
529
529
525
523
521
517
515
509
505
503
499
497
493
491
487
483
481
479
479
477
477
477
477
477
479
479
481
481
483
485
487
491
491
493
493
495
497
497
499
499
499
497
497
495
493
491
487
485
477
471
467
461
455
443
437
431
423
417
409
403
391
385
379
373
369
363
359
357
355
353
353
353
353
355
357
359
363
371
377
383
389
395
409
415
423
431
441
449
457
475
485
495
503
513
531
539
547
555
563
569
575
587
591
597
599
603
609
609
609
609
609
607
605
603
601
599
595
593
587
583
581
577
575
569
567
567
565
565
565
565
567
569
571
573
577
587
591
597
603
611
619
629
651
663
677
691
705
691
709
729
749
769
827
857
889
897
905
951
997
1055
1147
1239
1275
1313
1477
1569
1663
1781
1901
2027
2155
2409
2491
2573
2825
3079
3215
3161
3109
3055
3003
2291
1867
1443
1107
771
537
303
123
153
181
345
511
521
555
589
635
681
725
771
841
843
845
869
895
941
951
961
973
985
1001
1007
1013
1015
1019
1019
1019
1011
1003
997
987
977
951
935
919
923
927
905
885
837
811
787
761
735
685
659
633
605
579
523
491
461
427
393
355
317
233
187
141
93
43
-56
-104
-154
-200
-246
-286
-326
-392
-382
-372
-392
-414
-430
-440
-452
-460
-468
-472
-478
-488
-490
-494
-496
-498
-500
-498
-498
-496
-496
-492
-490
-490
-488
-488
-488
-488
-490
-492
-496
-500
-504
-520
-530
-540
-556
-572
-560
-550
-602
-600
-598
-644
-690
-726
-796
-866
-946
-1026
-1202
-1292
-1382
-1470
-1560
-1642
-1724
-1908
-1968
-2030
-2028
-2028
-2100
-2128
-2156
-2146
-2136
-2138
-2142
-2150
-2154
-2158
-2158
-2158
-2150
-2144
-2140
-2132
-2124
-2106
-2094
-2082
-2068
-2054
-2038
-2024
-1992
-1988
-1984
-1964
-1946
-1906
-1886
-1866
-1844
-1824
-1804
-1784
-1742
-1720
-1700
-1678
-1658
-1616
-1594
-1572
-1550
-1528
-1482
-1460
-1438
-1414
-1392
-1368
-1346
-1302
-1280
-1258
-1236
-1216
-1174
-1154
-1134
-1114
-1096
-1076
-1058
-1022
-1004
-988
-970
-952
-918
-900
-882
-862
-844
-826
-808
-770
-750
-730
-710
-692
-648
-632
-616
-600
-586
-558
-544
-532
-520
-508
-498
-488
-468
-458
-450
-442
-434
-418
-410
-404
-396
-388
-380
-374
-358
-350
-342
-334
-326
-310
-302
-294
-286
-278
-260
-250
-242
-232
-224
-214
-204
-184
-172
-162
-150
-140
-116
-102
-88
-74
-62
-46
-32
-4
11
25
39
53
81
93
105
117
127
145
153
161
169
175
181
185
195
199
203
207
209
217
221
225
229
233
239
243
253
259
267
273
281
295
303
311
317
325
341
347
355
363
371
377
385
401
409
417
425
433
451
461
471
481
493
503
515
537
549
561
573
585
607
617
629
639
649
659
669
685
691
699
705
711
721
725
729
733
737
743
745
749
751
753
755
759
765
767
769
771
775
779
781
783
783
783
783
785
783
781
779
775
773
765
759
755
749
745
733
727
723
717
713
709
705
697
695
693
691
691
691
691
691
693
695
697
699
707
711
715
719
725
739
743
749
757
765
789
801
813
809
805
825
845
811
851
891
945
1001
1003
1093
1183
1301
1421
1545
1671
1919
1997
2075
2321
2567
2645
2577
2511
2429
2347
1735
1383
1033
747
463
285
109
-14
5
23
127
229
273
275
279
299
319
345
371
419
431
445
459
473
499
511
523
533
543
551
559
571
575
581
585
589
593
595
597
597
599
601
601
603
603
605
605
607
613
617
621
625
631
645
653
663
673
683
695
707
731
745
759
771
785
813
827
841
853
867
893
905
917
927
939
949
961
983
993
1005
1015
1027
1047
1057
1069
1079
1091
1101
1111
1131
1139
1149
1157
1165
1179
1185
1193
1197
1203
1213
1217
1221
1223
1227
1229
1233
1237
1237
1239
1239
1241
1241
1241
1241
1239
1237
1233
1229
1221
1215
1209
1201
1193
1175
1163
1153
1141
1131
1107
1093
1081
1069
1057
1043
1031
1007
995
983
971
959
937
925
913
901
891
879
869
845
833
823
811
799
775
763
751
739
729
717
707
687
677
667
659
651
639
633
629
625
621
617
615
615
615
615
617
619
625
629
633
637
643
653
659
665
671
677
683
689
701
707
713
719
725
735
739
743
747
751
757
759
763
765
769
771
773
777
779
781
781
783
785
785
785
785
785
785
785
781
779
777
773
771
763
759
755
749
745
735
731
727
721
717
713
711
705
701
699
697
695
693
691
691
689
687
685
685
681
679
677
673
671
663
659
655
649
645
637
631
627
623
619
615
611
603
599
595
591
587
579
573
569
563
559
551
545
529
519
509
497
485
459
445
431
415
399
383
367
333
317
301
283
267
237
223
207
191
175
147
133
117
105
93
79
63
55
33
11
9
7
-70
-34
0
-64
-130
-230
-332
-590
-734
-878
-1020
-1164
-1674
-1768
-1864
-1900
-1938
-1996
-2052
-2110
-2182
-2254
-2186
-2118
-2124
-2156
-2188
-2180
-2172
-2260
-2218
-2178
-2116
-2054
-1996
-1938
-1828
-1778
-1728
-1680
-1632
-1530
-1474
-1420
-1366
-1312
-1218
-1176
-1134
-1096
-1060
-1028
-998
-1000
-976
-954
-934
-916
-884
-868
-854
-832
-810
-806
-802
-772
-756
-740
-720
-702
-658
-632
-608
-598
-590
-522
-484
-446
-406
-368
-328
-290
-216
-182
-148
-118
-88
-78
-56
-34
-16
1
17
33
69
83
95
113
129
153
157
159
175
191
217
241
239
283
327
291
257
407
521
635
787
941
1143
1401
1659
1933
2207
2413
2619
2803
2749
2697
2505
2315
1747
1419
1091
799
509
273
37
-262
-318
-374
-140
91
-88
65
217
333
449
625
543
461
495
531
547
563
537
541
545
541
539
547
547
549
549
549
549
551
551
551
553
553
555
555
555
555
555
555
557
557
557
557
557
557
559
561
561
563
563
565
569
571
575
577
581
585
589
599
605
611
617
625
639
647
655
665
675
693
703
713
723
735
745
757
779
789
801
811
821
843
853
863
873
885
893
903
923
933
943
953
963
983
993
1003
1013
1023
1033
1043
1063
1071
1081
1089
1099
1117
1123
1131
1135
1141
1149
1151
1153
1153
1153
1149
1147
1137
1129
1123
1113
1105
1085
1071
1059
1045
1033
1017
1003
973
957
941
925
909
875
859
843
833
825
793
775
759
733
709
691
675
643
627
611
595
579
549
535
521
507
495
483
473
451
441
433
425
419
409
405
403
401
399
401
403
405
407
411
415
421
433
441
449
457
465
481
489
497
505
513
521
529
541
547
553
555
559
565
565
565
563
563
557
553
549
543
537
531
525
511
503
495
487
479
465
457
449
441
435
427
421
409
403
397
391
387
377
373
369
365
363
359
357
353
351
349
347
347
347
347
349
349
351
355
359
363
367
371
375
381
391
397
403
409
415
425
429
435
439
445
447
451
457
457
459
457
457
453
449
447
441
437
425
417
409
401
393
383
375
357
347
339
329
321
303
293
285
277
269
261
255
241
235
231
227
221
219
217
215
213
213
213
213
213
213
215
215
219
221
223
225
227
233
237
239
243
247
249
255
257
261
263
267
273
275
277
279
281
281
281
281
279
277
273
271
263
257
251
239
225
217
209
201
193
185
177
161
155
147
141
133
123
119
113
109
105
103
101
95
95
93
91
89
87
85
83
83
81
77
77
75
75
73
73
73
71
71
71
73
73
75
77
77
77
77
79
79
81
81
81
81
79
77
77
75
75
75
75
77
77
77
77
81
85
103
113
121
109
97
139
119
99
143
187
247
309
277
393
511
657
803
1127
1285
1445
1679
1913
2197
2259
2321
2137
1953
1883
1815
1233
853
475
111
-254
-578
-644
-710
-662
-616
-504
-392
-378
-350
-324
-286
-250
-182
-158
-134
-132
-132
-96
-82
-68
-56
-44
-34
-24
-8
1
9
17
25
41
49
55
63
69
77
83
97
105
113
121
129
147
155
163
173
181
191
199
215
223
231
239
259
265
273
279
287
301
307
315
323
331
339
347
367
377
389
401
413
441
455
471
487
505
507
509
549
571
593
615
639
685
707
729
751
773
813
831
849
863
879
893
909
935
947
959
969
981
997
1005
1013
1019
1025
1029
1033
1037
1037
1039
1037
1035
1029
1023
1017
1007
999
977
963
951
935
921
925
929
887
863
841
817
793
741
713
687
665
645
615
585
521
489
457
431
405
353
329
305
283
261
223
213
201
187
173
161
149
129
121
111
105
97
85
81
77
75
71
69
65
63
63
63
65
65
69
73
75
81
85
91
95
107
115
123
131
139
155
165
173
183
191
207
215
223
231
239
251
263
267
273
277
283
291
293
297
299
303
305
307
313
315
317
319
323
327
329
333
335
337
341
343
345
347
349
349
351
353
353
353
353
353
351
351
351
351
351
349
349
351
351
353
355
357
363
367
371
375
379
389
395
401
407
413
419
427
439
443
449
453
459
469
471
475
477
481
483
485
487
487
487
487
487
485
483
483
481
479
475
473
471
469
467
463
461
457
453
451
447
445
441
439
437
437
437
437
437
443
447
451
457
463
479
489
501
513
525
539
553
585
601
617
633
649
681
697
713
725
739
763
771
781
787
793
795
799
799
795
791
785
779
763
751
741
729
717
705
693
667
655
643
631
621
603
595
587
579
573
561
557
553
549
545
541
537
529
523
519
513
509
497
489
483
475
467
457
449
429
419
409
399
389
367
357
347
337
327
307
297
287
277
267
257
249
235
227
219
213
207
197
193
189
189
189
189
189
197
201
205
215
225
205
229
251
247
243
335
309
283
361
441
557
675
941
1099
1259
1385
1511
1959
2155
2351
2181
2013
1971
1929
1357
1023
689
343
0
-350
-438
-528
-510
-494
-354
-216
-200
-168
-138
-96
-54
27
61
93
77
59
91
105
119
129
137
145
151
159
165
169
175
179
187
191
193
197
201
205
209
217
221
225
229
233
243
249
253
257
263
265
269
271
275
277
279
285
287
291
293
297
303
307
311
315
319
321
325
333
335
337
337
337
337
333
331
323
317
293
307
323
303
283
291
299
219
173
125
85
43
-72
-132
-194
-258
-322
-386
-452
-576
-602
-628
-668
-708
-776
-770
-766
-786
-808
-830
-842
-856
-864
-874
-882
-890
-904
-910
-916
-920
-926
-932
-934
-938
-940
-942
-942
-944
-948
-948
-950
-950
-952
-956
-956
-958
-960
-962
-962
-964
-968
-968
-970
-972
-974
-976
-976
-976
-976
-976
-972
-970
-968
-964
-962
-956
-952
-942
-934
-928
-920
-914
-898
-890
-882
-874
-866
-858
-850
-836
-828
-822
-816
-810
-798
-794
-790
-786
-784
-782
-780
-780
-778
-778
-778
-778
-780
-780
-780
-780
-780
-778
-776
-776
-772
-770
-766
-764
-756
-750
-746
-740
-734
-722
-714
-708
-700
-694
-682
-674
-668
-660
-654
-648
-642
-628
-620
-614
-606
-600
-584
-576
-570
-562
-554
-544
-536
-520
-510
-502
-494
-486
-468
-460
-452
-444
-436
-418
-410
-402
-392
-382
-372
-362
-340
-328
-316
-302
-290
-260
-244
-228
-212
-196
-178
-162
-128
-112
-96
-80
-66
-40
-26
-14
-4
5
15
23
39
45
51
57
63
73
77
81
87
91
99
105
109
113
117
123
127
137
141
145
149
153
161
165
169
173
177
183
187
197
203
207
215
221
239
247
255
267
279
305
319
333
347
363
379
397
431
447
463
479
497
529
543
559
573
587
599
611
633
643
653
661
671
687
695
703
709
717
731
737
743
749
755
761
767
777
781
785
787
791
795
795
797
795
795
793
791
783
779
775
769
763
749
741
735
727
719
705
697
689
681
675
667
661
649
643
637
631
625
615
609
605
601
597
593
589
583
581
581
581
581
583
585
589
595
601
609
617
637
651
665
681
697
685
705
727
749
771
827
863
899
921
945
979
1013
1003
1091
1179
1091
1003
1261
927
593
175
-244
-650
-1058
-1514
-1638
-1764
-1766
-1770
-1502
-1512
-1524
-1490
-1456
-1418
-1380
-1342
-1310
-1280
-1282
-1286
-1254
-1240
-1228
-1216
-1206
-1188
-1182
-1178
-1172
-1166
-1160
-1156
-1150
-1146
-1144
-1142
-1140
-1134
-1132
-1130
-1128
-1126
-1122
-1118
-1116
-1114
-1112
-1108
-1106
-1102
-1098
-1096
-1092
-1090
-1082
-1078
-1074
-1068
-1064
-1058
-1054
-1040
-1032
-1024
-1014
-1006
-984
-972
-960
-944
-930
-900
-900
-902
-882
-864
-844
-824
-778
-754
-730
-704
-680
-628
-604
-582
-552
-522
-492
-462
-402
-370
-340
-310
-282
-236
-210
-186
-162
-138
-116
-94
-54
-40
-28
-14
-2
21
31
39
47
55
65
69
73
75
75
77
77
73
71
69
67
63
55
51
45
39
33
29
23
11
5
-2
-8
-14
-28
-34
-40
-46
-54
-66
-72
-80
-86
-92
-98
-104
-116
-122
-128
-134
-140
-150
-154
-160
-164
-168
-172
-176
-182
-184
-186
-186
-186
-186
-184
-182
-178
-174
-164
-158
-152
-144
-138
-128
-120
-100
-90
-80
-68
-58
-34
-22
-12
0
11
23
33
57
69
79
91
101
125
137
147
159
171
195
209
221
233
259
273
301
315
329
343
359
387
399
413
425
439
451
463
483
491
501
509
517
529
533
537
541
545
547
549
553
555
557
557
559
563
565
569
571
575
583
587
591
597
603
609
615
629
635
641
649
657
671
677
685
691
697
703
709
719
723
729
733
737
743
745
747
747
749
751
749
749
747
747
745
743
737
733
731
727
725
721
717
715
713
711
709
709
707
707
707
707
709
711
713
715
717
719
721
721
723
723
725
723
723
721
719
719
717
715
711
707
705
703
701
699
699
699
699
701
703
705
713
717
723
729
735
749
757
765
773
781
789
797
813
819
827
833
839
849
853
857
859
861
861
863
863
861
859
855
853
845
839
835
829
823
815
809
793
785
777
769
761
743
733
723
713
705
687
677
669
661
653
643
635
621
615
609
603
597
591
589
587
587
589
589
589
595
603
613
601
591
627
647
667
641
617
697
753
809
885
961
979
997
1229
1371
1513
1673
1835
2115
2355
2595
2791
2989
2925
2861
2691
2603
2517
2127
1739
791
343
-104
-252
-400
-452
-344
-236
-140
-46
-26
-8
67
109
151
183
215
249
247
247
267
289
307
327
365
379
393
405
417
443
455
467
477
489
507
515
523
529
537
541
547
557
561
565
567
571
577
579
583
585
589
591
595
601
605
609
613
617
625
629
633
637
641
645
649
655
657
661
663
665
669
671
673
675
677
683
685
689
693
699
705
711
725
733
743
753
765
791
805
819
835
851
867
883
899
919
939
961
985
1017
1031
1045
1057
1069
1091
1097
1105
1109
1115
1117
1119
1115
1109
1105
1097
1091
1069
1055
1043
1027
1011
1013
1017
973
949
927
901
877
827
801
777
751
727
681
657
635
613
593
573
555
527
511
497
485
473
449
439
431
421
413
405
399
387
381
375
369
365
357
353
349
345
341
333
329
327
323
321
317
315
309
305
303
301
299
295
293
293
293
293
293
295
297
299
301
303
307
315
319
325
329
335
339
345
355
359
365
369
375
383
385
389
391
395
399
401
403
403
405
407
409
413
415
417
419
421
427
429
433
437
441
443
447
453
455
459
459
461
461
459
459
457
455
447
441
437
431
425
417
411
397
389
383
375
369
357
351
347
341
337
333
331
325
323
323
323
323
327
329
331
335
339
347
353
359
365
371
379
387
401
409
417
425
433
449
455
463
469
477
481
487
493
495
497
497
499
497
493
491
487
483
473
467
463
457
451
445
439
427
421
417
411
407
397
393
391
387
383
379
377
371
367
365
361
359
355
353
351
349
347
345
345
345
347
349
351
355
363
369
377
385
393
411
421
433
445
457
469
481
503
513
525
535
545
561
567
573
577
581
581
583
583
579
577
571
567
555
547
539
529
521
501
491
481
469
457
445
435
411
399
387
375
363
341
329
319
309
301
293
287
277
275
273
273
275
279
285
293
301
311
283
305
329
353
379
379
379
463
479
497
597
699
743
827
911
1021
1131
1259
1389
1661
1787
1913
2133
2353
2577
2587
2599
2489
2379
2111
1741
1373
969
565
-72
-356
-424
-492
-472
-452
-218
-198
-180
-172
-166
-146
-126
-72
-46
-22
-12
-2
25
39
53
67
79
91
103
123
133
143
153
163
181
189
197
207
215
229
237
243
249
255
259
265
275
279
283
285
289
295
297
299
301
303
305
307
313
315
317
319
323
329
333
337
341
345
355
359
365
369
375
381
387
399
405
411
417
425
439
445
453
459
467
475
483
499
507
517
525
535
553
563
573
583
593
615
627
639
651
663
675
687
711
723
735
745
757
775
783
791
795
801
803
807
805
801
797
789
783
761
747
735
719
703
705
681
657
633
609
583
557
509
485
461
437
415
373
353
333
313
295
277
259
225
211
195
183
169
145
135
125
117
109
103
97
87
85
83
83
81
83
85
85
89
91
95
97
99
101
101
101
99
95
91
87
81
73
57
49
39
29
17
7
-4
-28
-38
-50
-60
-72
-92
-100
-108
-114
-120
-130
-134
-138
-138
-140
-140
-142
-142
-140
-140
-138
-136
-132
-128
-126
-124
-122
-118
-116
-110
-106
-104
-100
-98
-90
-86
-84
-80
-78
-72
-70
-68
-66
-66
-66
-66
-68
-70
-72
-76
-80
-88
-94
-100
-106
-112
-118
-124
-138
-144
-150
-154
-160
-168
-170
-174
-176
-180
-182
-182
-182
-180
-180
-178
-178
-174
-170
-168
-166
-164
-158
-154
-152
-148
-146
-142
-140
-132
-128
-124
-118
-114
-104
-98
-92
-86
-80
-72
-66
-54
-48
-42
-36
-32
-22
-18
-16
-14
-12
-10
-10
-12
-14
-16
-20
-24
-32
-36
-42
-48
-54
-64
-68
-74
-78
-84
-88
-92
-98
-100
-102
-102
-104
-106
-104
-104
-104
-104
-102
-100
-98
-96
-96
-94
-92
-86
-84
-82
-78
-74
-66
-60
-54
-48
-42
-34
-26
-8
1
9
19
29
49
59
67
77
85
99
105
111
115
117
119
121
119
117
113
109
103
89
81
73
65
55
45
35
15
5
-4
-14
-24
-42
-50
-60
-68
-76
-90
-96
-104
-108
-114
-116
-120
-124
-122
-122
-118
-116
-110
-102
-94
-80
-66
-52
-38
-58
-32
-6
-12
-20
73
137
199
205
209
299
391
637
789
941
1111
1283
1583
1857
2131
2319
2507
2383
2309
2235
2159
2083
1733
1385
553
207
-138
-388
-638
-850
-822
-796
-588
-382
-376
-372
-306
-262
-218
-178
-138
-80
-98
-118
-102
-86
-54
-42
-30
-20
-10
0
7
31
43
55
67
77
103
117
129
143
155
169
183
211
225
237
249
261
285
295
307
317
329
347
355
363
371
379
385
393
407
413
421
429
437
451
459
467
475
483
491
499
515
523
533
541
549
565
571
579
585
593
609
615
623
631
639
647
657
677
687
699
713
727
757
751
747
767
787
809
831
879
903
929
955
981
1029
1043
1059
1073
1087
1099
1111
1131
1135
1141
1143
1147
1145
1141
1137
1131
1125
1105
1093
1083
1067
1053
1037
1021
1023
1003
985
963
943
897
871
847
819
793
779
765
695
657
621
583
545
509
485
461
441
421
417
405
395
387
381
375
369
361
359
357
355
355
355
355
355
355
355
353
353
349
347
345
341
339
333
329
327
323
321
315
313
311
311
311
311
311
313
315
317
319
323
329
331
335
337
341
343
347
351
351
353
353
353
351
349
349
347
347
343
341
341
339
339
337
337
337
337
339
341
343
347
349
353
355
359
361
363
367
369
371
371
371
371
369
369
365
363
359
357
349
343
339
333
327
317
311
305
299
295
283
277
273
269
265
259
255
249
243
241
237
231
229
225
223
221
219
215
211
209
205
203
201
195
193
191
189
187
185
185
183
183
181
181
181
181
183
183
183
183
183
183
183
183
181
181
179
173
171
167
163
159
151
147
141
135
129
119
115
109
105
99
95
89
81
77
71
67
63
55
51
47
43
39
35
31
23
19
15
11
5
-2
-6
-10
-12
-16
-22
-24
-28
-30
-32
-34
-36
-40
-42
-44
-46
-50
-56
-60
-66
-72
-80
-88
-96
-116
-128
-140
-154
-168
-198
-214
-232
-248
-264
-280
-298
-328
-342
-358
-372
-386
-410
-420
-430
-440
-450
-464
-470
-478
-482
-488
-492
-498
-504
-506
-510
-510
-512
-520
-520
-522
-516
-512
-508
-506
-480
-488
-498
-534
-570
-496
-436
-378
-396
-416
-174
-30
111
277
443
585
729
951
1267
1583
1503
1425
1241
1145
1049
701
353
-106
-568
-1376
-1566
-1756
-1830
-1904
-1782
-1658
-1536
-1536
-1538
-1530
-1510
-1490
-1436
-1382
-1384
-1388
-1376
-1364
-1354
-1344
-1336
-1322
-1318
-1316
-1314
-1312
-1312
-1312
-1312
-1314
-1316
-1316
-1318
-1322
-1322
-1324
-1324
-1324
-1322
-1318
-1316
-1312
-1308
-1302
-1298
-1282
-1274
-1266
-1256
-1248
-1230
-1220
-1210
-1200
-1190
-1180
-1170
-1152
-1142
-1134
-1124
-1116
-1096
-1086
-1078
-1066
-1056
-1044
-1034
-1010
-996
-982
-968
-954
-922
-918
-916
-896
-878
-838
-816
-796
-774
-754
-734
-714
-672
-652
-632
-610
-590
-546
-524
-504
-482
-460
-436
-414
-370
-348
-328
-310
-294
-266
-254
-242
-232
-224
-212
-208
-206
-206
-208
-210
-214
-228
-236
-246
-256
-268
-296
-310
-324
-338
-352
-366
-382
-408
-420
-432
-442
-452
-466
-468
-472
-472
-472
-466
-458
-450
-436
-424
-438
-454
-410
-382
-356
-344
-332
-254
-210
-166
-118
-72
-34
1
109
169
227
287
347
473
533
595
623
653
735
771
809
839
871
895
921
931
953
977
997
1017
1047
1059
1073
1083
1093
1103
1113
1127
1131
1137
1139
1141
1139
1135
1133
1127
1123
1115
1109
1091
1079
1069
1057
1045
1019
1005
991
977
963
935
921
907
893
879
865
853
827
813
801
789
777
753
741
731
719
707
695
685
665
653
643
633
623
603
593
583
573
563
545
535
525
515
505
495
485
465
453
443
433
423
401
389
379
367
357
345
335
315
305
295
287
279
263
255
249
241
233
231
227
227
225
225
225
227
229
231
235
239
251
257
263
271
279
289
309
319
331
343
357
387
403
419
419
419
459
481
503
527
553
579
607
643
671
701
733
765
837
879
921
969
1017
1051
1085
1213
1281
1351
1423
1495
1645
1725
1805
1887
1969
2051
2133
2315
2415
2515
2589
2665
2741
2747
2753
2747
2743
2879
2933
2987
3053
3121
3199
3277
3445
3527
3609
3681
3753
3869
3867
3867
3899
3931
3899
3867
3887
3889
3891
3885
3879
3867
3855
3843
3831
3819
3787
3787
3789
3767
3745
3721
3699
3629
3617
3607
3583
3561
3515
3491
3469
3451
3433
3419
3405
3375
3365
3357
3349
3341
3341
3321
3301
3317
3333
3271
3311
3353
3327
3303
3401
3499
3737
3859
3981
4081
4183
4317
4503
4691
4593
4497
4375
4255
3625
3261
2899
2547
2195
1771
1643
1517
1497
1479
1593
1655
1719
1709
1699
1685
1671
1683
1689
1697
1697
1697
1683
1673
1665
1655
1645
1631
1617
1585
1585
1587
1565
1543
1495
1469
1445
1419
1395
1369
1343
1295
1271
1247
1225
1203
1165
1151
1139
1125
1111
1085
1073
1061
1051
1041
1031
1023
1005
997
989
979
971
953
943
935
925
915
905
895
873
861
849
837
825
801
789
777
765
753
731
719
709
697
687
677
667
647
637
629
621
613
597
589
581
573
567
559
553
539
531
525
519
513
499
493
487
479
473
461
453
445
437
429
419
411
389
377
367
353
341
309
311
315
293
273
249
227
217
181
145
105
63
-22
-66
-110
-152
-196
-274
-308
-342
-342
-344
-368
-394
-438
-458
-480
-500
-520
-560
-580
-600
-620
-642
-662
-684
-724
-742
-760
-772
-786
-808
-816
-826
-832
-838
-840
-844
-844
-842
-842
-838
-834
-824
-818
-814
-808
-802
-792
-788
-784
-782
-780
-778
-778
-780
-782
-784
-788
-792
-800
-804
-808
-812
-818
-820
-824
-830
-830
-832
-832
-832
-828
-824
-822
-818
-814
-802
-796
-790
-784
-778
-772
-766
-754
-748
-742
-736
-732
-724
-720
-716
-712
-708
-706
-704
-698
-694
-692
-690
-688
-682
-678
-676
-674
-672
-666
-662
-660
-656
-654
-650
-648
-642
-640
-638
-634
-632
-628
-626
-624
-622
-620
-618
-616
-610
-608
-606
-604
-602
-598
-596
-596
-594
-592
-590
-590
-590
-590
-590
-590
-592
-594
-594
-596
-598
-600
-604
-606
-608
-608
-610
-610
-610
-608
-606
-604
-600
-596
-586
-578
-572
-564
-556
-546
-536
-514
-502
-490
-478
-466
-442
-430
-418
-406
-396
-374
-364
-354
-344
-336
-326
-318
-304
-296
-290
-282
-274
-260
-252
-244
-234
-226
-216
-206
-186
-174
-162
-150
-138
-112
-98
-84
-70
-58
-34
-22
-10
0
9
19
27
39
43
47
49
51
51
49
45
41
35
27
19
1
-8
-18
-28
-40
-64
-74
-86
-96
-106
-126
-132
-140
-144
-150
-152
-156
-156
-154
-152
-146
-142
-128
-120
-112
-102
-92
-80
-70
-46
-32
-20
-10
0
25
41
55
71
85
91
113
133
115
95
133
169
273
271
269
373
477
723
855
989
1123
1257
1369
1481
1497
1725
1953
1939
1927
1791
1763
1737
1399
1061
625
191
-494
-692
-892
-888
-884
-580
-388
-198
-64
69
7
21
33
39
45
65
85
109
115
121
131
139
153
161
169
175
181
187
191
201
205
207
209
211
215
217
217
219
219
219
221
221
223
223
225
227
233
237
241
251
263
271
281
289
299
309
321
345
357
371
385
399
427
441
457
473
489
521
537
553
569
585
601
617
647
663
679
693
707
735
747
759
769
781
789
799
813
817
821
823
827
829
829
829
827
825
819
815
811
807
803
799
795
787
781
777
771
767
753
745
737
729
721
709
697
665
677
689
669
649
601
589
579
533
489
445
401
319
319
319
295
273
237
229
221
209
195
175
165
153
143
131
121
111
89
79
67
57
45
21
9
-2
-14
-26
-36
-48
-70
-78
-88
-94
-102
-112
-114
-118
-120
-122
-120
-118
-116
-112
-110
-106
-102
-94
-88
-84
-78
-72
-60
-54
-50
-42
-36
-30
-24
-8
0
7
17
25
47
59
69
81
93
119
133
147
161
175
189
201
229
241
251
263
275
295
303
311
317
325
329
333
339
339
341
339
339
333
327
323
317
313
299
291
283
273
265
255
247
231
223
213
205
195
179
171
163
157
149
143
137
127
123
119
115
111
105
103
101
99
97
95
93
91
91
89
89
87
87
87
85
85
85
85
87
87
89
91
93
95
99
103
105
107
109
115
117
119
121
121
123
123
123
123
121
119
117
113
111
107
105
101
97
95
93
93
91
91
91
93
97
99
103
105
117
123
129
135
141
149
157
173
181
187
195
203
219
227
233
239
257
261
267
271
277
281
285
291
293
295
295
297
297
295
295
293
291
287
285
277
271
267
259
253
241
233
225
217
209
191
183
173
165
157
149
141
129
123
117
115
111
107
107
107
109
111
115
119
131
139
147
157
165
187
199
211
225
237
251
265
291
307
323
325
329
369
387
407
433
461
441
483
527
583
641
643
647
857
979
1101
1225
1351
1573
1771
1971
2049
2127
2111
2095
1841
1687
1533
1177
823
155
-76
-308
-406
-506
-482
-374
-268
-280
-294
-260
-228
-192
-162
-132
-102
-74
-32
-8
15
39
61
81
101
121
133
145
155
163
177
181
185
187
187
187
185
183
181
177
173
169
161
159
155
153
151
151
153
155
159
161
167
173
189
199
209
221
231
253
265
279
291
305
331
343
357
369
381
393
405
427
437
449
459
469
491
499
509
517
527
535
545
561
567
573
579
585
593
595
599
601
603
603
603
603
601
599
597
595
591
587
585
583
581
577
575
573
571
571
569
567
561
557
555
549
545
535
527
519
509
501
491
481
457
443
429
413
399
369
351
335
319
303
271
255
239
225
209
195
179
151
139
125
113
101
79
69
57
49
39
31
21
5
0
-8
-14
-22
-34
-38
-44
-48
-54
-62
-66
-70
-72
-74
-76
-78
-80
-80
-80
-78
-76
-72
-68
-64
-58
-52
-44
-38
-20
-10
0
11
23
49
63
77
93
109
139
157
173
189
205
221
235
263
275
289
301
313
335
343
353
359
367
373
379
389
391
395
397
401
405
405
407
407
409
409
411
413
413
415
415
417
419
421
423
425
427
433
435
437
441
445
447
451
457
461
465
469
473
479
481
485
487
491
493
495
499
499
501
501
503
505
505
505
505
507
509
509
511
511
513
513
515
517
517
517
517
517
517
515
513
509
507
503
499
489
483
477
469
463
447
439
433
427
421
409
405
401
399
397
397
397
399
403
407
411
417
431
437
445
453
461
469
477
493
501
509
515
523
535
541
547
551
557
567
571
577
581
585
589
595
603
605
609
611
615
619
619
619
617
617
613
611
601
593
587
577
569
545
531
519
505
491
475
461
429
413
399
385
371
347
335
325
317
311
301
299
297
299
301
305
309
327
337
349
363
379
369
395
421
429
437
477
519
527
583
639
713
787
975
1091
1207
1333
1459
1715
1901
2089
2203
2317
2395
2473
2469
2373
2279
2173
2069
1469
1221
973
627
281
139
-2
-34
179
391
371
353
395
401
409
433
459
511
497
483
487
493
495
499
503
503
503
501
499
495
493
493
493
493
493
495
499
503
509
515
523
539
547
557
567
579
601
611
623
633
645
655
667
687
695
705
713
721
735
741
747
751
757
761
767
773
775
779
781
785
789
791
793
795
797
797
799
803
803
805
805
807
811
811
813
813
815
819
821
823
825
827
829
833
839
843
849
853
859
873
879
887
895
903
911
919
935
941
949
953
959
967
967
969
965
963
955
945
937
925
913
925
939
897
869
843
831
819
745
705
665
623
581
535
491
395
345
295
259
223
117
59
0
-56
-112
-202
-240
-280
-268
-256
-278
-302
-308
-316
-326
-332
-338
-340
-340
-342
-340
-340
-334
-330
-318
-308
-300
-288
-278
-254
-238
-224
-206
-190
-198
-176
-156
-132
-108
-82
-58
-6
19
43
69
93
137
147
157
171
185
197
207
227
235
241
249
257
259
263
265
267
267
269
273
275
277
279
281
287
289
293
297
301
311
315
321
327
333
339
347
361
367
375
383
391
407
415
423
429
437
445
453
465
471
477
481
487
495
497
499
501
503
503
501
501
499
497
495
493
487
483
481
477
475
469
465
463
459
457
455
453
449
447
445
443
441
437
435
435
433
431
431
431
431
431
431
433
435
441
445
449
455
461
475
481
489
497
507
517
527
549
559
569
579
591
611
621
633
641
651
669
677
685
691
699
705
711
721
723
727
729
733
735
735
735
733
731
727
725
715
709
703
695
687
667
655
643
629
617
603
589
559
543
527
511
495
465
449
435
421
407
383
371
361
353
345
337
331
323
321
319
319
319
325
329
333
339
345
353
361
377
389
401
409
419
449
449
449
475
503
489
533
579
545
511
599
689
943
1083
1223
1385
1549
2043
2139
2237
2435
2635
2435
2235
2093
1787
1483
1135
787
225
57
-112
-158
-206
-128
-40
47
65
83
89
93
139
179
217
233
249
291
313
335
357
379
397
417
447
461
477
489
501
521
529
537
543
549
557
559
561
561
561
559
559
555
551
549
545
543
537
533
531
529
527
525
523
521
521
521
521
523
529
531
535
539
545
551
559
573
581
591
601
613
637
651
665
679
695
727
729
733
753
773
793
813
855
875
897
917
939
979
999
1019
1037
1057
1075
1095
1125
1139
1153
1165
1179
1199
1207
1217
1223
1229
1237
1239
1241
1239
1239
1235
1231
1219
1209
1201
1189
1179
1153
1137
1123
1107
1091
1085
1081
1041
1021
1001
981
961
923
905
887
869
853
819
803
787
771
757
741
725
691
675
659
641
623
587
567
549
525
501
485
469
437
423
409
395
383
361
351
341
331
323
309
303
299
295
291
289
287
285
285
285
285
287
291
293
297
301
305
309
313
321
325
329
333
339
347
349
353
355
359
361
363
365
365
367
367
367
367
367
367
365
365
363
361
361
361
361
359
359
357
355
355
353
351
345
341
339
335
331
325
321
309
301
295
287
281
265
257
249
243
235
221
215
209
205
199
197
193
189
189
187
189
189
191
195
197
199
201
205
207
211
213
215
217
217
219
219
219
219
217
217
217
215
215
215
217
217
221
225
227
231
235
249
255
261
267
273
279
289
293
299
301
305
309
309
309
307
307
305
301
299
295
293
289
287
283
281
279
277
277
275
275
275
275
277
277
277
279
279
279
277
277
275
273
271
267
265
261
259
251
247
241
235
225
221
215
211
207
197
193
187
183
179
175
171
163
159
155
153
151
145
145
143
145
145
147
147
153
159
163
169
173
191
197
203
217
229
227
251
277
269
261
305
351
257
349
441
571
703
1027
1203
1379
1547
1715
1989
2265
2539
2569
2601
2369
2139
1921
1581
1241
849
457
-212
-342
-472
-502
-534
-456
-380
-146
-122
-100
-60
-20
67
103
139
123
105
109
111
131
137
143
145
147
143
143
143
143
141
137
135
133
131
129
127
125
123
123
123
123
123
125
127
127
129
129
131
131
135
137
137
139
139
143
145
147
151
153
157
159
167
173
179
185
191
205
213
221
231
239
255
265
275
285
295
305
317
339
349
361
373
385
407
419
431
443
455
467
481
507
519
533
545
559
585
597
609
621
633
657
667
679
687
697
705
713
725
729
733
735
737
737
735
733
727
723
715
709
689
677
667
653
639
607
607
609
589
569
527
503
481
457
433
407
383
335
311
287
265
243
197
177
157
139
119
107
93
67
55
43
35
25
11
5
0
-4
-8
-12
-12
-12
-12
-12
-10
-10
-6
-4
-2
0
1
7
9
11
13
15
19
21
25
29
31
35
37
45
51
55
61
65
71
77
91
99
107
115
123
141
149
157
165
173
187
193
197
201
205
207
207
205
201
197
191
183
165
155
143
131
117
103
89
57
41
25
11
-4
-34
-48
-62
-74
-86
-106
-114
-122
-128
-134
-138
-142
-144
-142
-142
-138
-136
-126
-118
-112
-104
-96
-86
-76
-56
-44
-34
-22
-12
9
21
33
45
57
83
97
109
123
137
151
165
195
211
227
243
259
271
289
309
329
349
369
389
427
445
465
481
497
527
539
553
565
579
601
611
623
631
641
649
659
677
685
693
701
709
725
733
743
751
761
769
779
797
807
817
827
837
855
863
871
877
885
891
897
903
903
905
903
901
891
883
877
867
857
831
815
801
785
769
765
761
717
693
671
649
627
587
571
555
541
527
515
503
485
477
471
467
465
461
463
467
475
483
495
487
479
499
519
511
505
579
629
681
645
609
835
967
1101
1245
1389
1483
1577
2169
2225
2283
2217
2153
2015
1675
1335
929
523
-180
-432
-684
-782
-882
-834
-788
-510
-348
-188
-128
-68
55
83
111
87
63
57
51
51
53
55
51
47
35
29
23
19
13
0
-6
-12
-16
-22
-24
-28
-32
-30
-30
-26
-24
-12
-2
5
17
27
41
53
83
99
113
129
145
175
191
205
219
231
241
251
271
279
289
295
303
313
317
323
327
331
341
345
349
353
357
361
367
375
379
385
389
395
403
407
411
413
417
419
421
423
423
425
425
425
423
423
423
423
423
423
423
425
425
427
427
429
431
431
431
429
427
425
421
417
407
399
385
373
399
379
359
367
375
299
255
213
165
115
15
-44
-104
-162
-220
-274
-328
-396
-438
-480
-514
-550
-532
-538
-546
-558
-570
-578
-586
-594
-594
-596
-598
-600
-598
-596
-594
-590
-588
-580
-574
-570
-566
-562
-556
-550
-540
-534
-530
-524
-520
-508
-502
-498
-494
-490
-486
-482
-474
-472
-470
-468
-466
-464
-464
-464
-464
-466
-468
-470
-474
-476
-478
-480
-482
-486
-488
-490
-490
-492
-494
-494
-496
-496
-496
-494
-494
-492
-490
-488
-484
-482
-474
-468
-464
-456
-450
-442
-434
-414
-402
-392
-378
-364
-336
-318
-302
-300
-298
-254
-232
-210
-186
-164
-148
-134
-106
-94
-82
-72
-62
-48
-44
-40
-38
-36
-36
-36
-40
-42
-46
-50
-54
-62
-66
-70
-74
-78
-84
-86
-88
-90
-92
-92
-94
-94
-94
-94
-94
-94
-94
-94
-94
-94
-94
-94
-94
-94
-92
-92
-90
-88
-82
-76
-72
-66
-60
-42
-32
-22
-10
1
15
29
57
73
89
105
119
151
165
179
193
205
217
227
243
249
255
259
263
267
267
267
265
263
259
257
247
241
237
231
221
217
213
209
205
199
199
197
197
195
197
199
205
211
215
221
225
241
251
263
257
253
271
291
329
317
305
339
373
469
535
601
597
593
793
927
1063
1225
1389
1541
1693
1959
2307
2655
2629
2603
2515
2471
2427
2085
1745
1333
921
11
-224
-314
-404
-336
-170
-6
-6
-8
43
79
115
147
179
201
221
187
199
211
221
231
249
255
259
263
269
275
285
291
297
303
309
325
333
341
349
359
379
389
401
413
425
437
449
471
483
495
505
517
539
549
561
571
581
591
601
619
629
639
649
661
683
695
709
721
735
749
765
761
779
799
821
845
895
905
917
953
989
1065
1103
1143
1179
1217
1251
1287
1349
1377
1405
1431
1457
1507
1531
1557
1583
1611
1635
1659
1705
1715
1725
1739
1753
1775
1781
1789
1793
1799
1803
1801
1799
1795
1791
1785
1779
1761
1749
1739
1727
1715
1685
1669
1655
1653
1651
1633
1617
1579
1559
1539
1517
1497
1451
1427
1405
1381
1357
1309
1287
1265
1243
1223
1207
1193
1165
1153
1141
1131
1123
1109
1103
1097
1093
1091
1089
1089
1089
1089
1091
1091
1093
1095
1095
1097
1095
1095
1093
1089
1085
1079
1075
1069
1063
1045
1035
1025
1013
1001
975
961
947
931
917
901
887
857
843
829
815
801
775
763
753
743
733
725
717
707
703
701
699
699
703
707
713
719
727
747
759
771
785
799
815
833
835
855
877
899
921
967
991
1015
1037
1059
1079
1101
1125
1137
1151
1163
1175
1193
1199
1207
1211
1217
1223
1223
1225
1223
1223
1221
1219
1211
1205
1201
1193
1187
1169
1159
1149
1137
1125
1111
1099
1069
1053
1039
1021
1005
973
955
939
923
907
875
861
847
833
821
809
799
779
771
765
757
751
743
739
735
731
729
727
725
721
717
715
711
707
695
687
681
671
661
637
621
607
617
627
605
585
537
509
483
457
433
357
319
283
249
217
207
195
171
157
141
131
121
109
107
105
107
107
113
117
135
149
161
177
191
181
203
225
251
277
325
353
383
401
421
457
495
591
587
583
643
703
885
1005
1127
1261
1397
1549
1701
1985
2081
2177
2419
2663
2699
2511
2325
2233
2143
1591
1207
825
479
135
-120
-376
-608
-584
-562
-384
-208
-230
-232
-236
-222
-210
-186
-164
-124
-130
-138
-132
-126
-114
-108
-104
-100
-98
-92
-88
-86
-82
-78
-74
-70
-58
-50
-44
-36
-28
-10
0
9
19
29
41
51
71
81
91
101
111
127
135
141
147
153
161
165
167
169
171
171
171
173
173
173
173
173
175
177
177
179
181
185
189
197
203
209
217
225
243
251
261
273
285
297
309
337
351
367
383
399
407
425
443
461
481
521
541
561
581
601
623
645
675
687
701
711
723
737
741
745
745
747
743
741
725
711
699
713
727
681
679
677
639
603
521
477
433
387
343
295
249
159
115
69
27
-14
-94
-130
-166
-196
-228
-232
-236
-280
-286
-292
-302
-312
-324
-326
-330
-330
-332
-330
-326
-322
-316
-310
-302
-294
-276
-266
-258
-248
-240
-222
-212
-204
-196
-188
-180
-174
-162
-156
-152
-146
-142
-134
-130
-126
-122
-120
-112
-108
-106
-102
-100
-96
-92
-86
-82
-80
-76
-74
-68
-64
-62
-58
-56
-52
-50
-46
-42
-40
-36
-34
-28
-24
-22
-18
-16
-12
-8
1
5
9
15
19
31
37
43
49
53
65
71
77
83
87
91
95
103
107
109
111
113
113
113
113
111
109
107
103
95
91
85
81
75
65
61
55
51
47
39
37
33
31
29
29
29
31
35
37
41
43
55
63
69
77
85
95
103
123
133
143
155
167
191
203
215
227
239
261
273
285
297
309
321
333
355
365
375
385
395
415
423
431
437
445
451
457
467
469
473
473
475
473
469
465
459
455
439
429
421
409
397
385
373
345
331
317
303
289
261
247
235
223
211
199
187
167
159
151
145
137
129
127
125
125
123
127
129
137
147
155
145
135
173
165
155
195
233
235
293
353
431
511
607
703
925
1041
1159
1271
1385
1481
1691
1901
1939
1979
1941
1905
1665
1377
1091
947
805
391
61
-268
-386
-506
-504
-312
-120
-130
-140
-110
-82
5
49
93
131
167
163
187
209
229
249
259
269
291
297
305
313
321
331
333
335
335
337
333
329
327
323
319
313
309
295
287
281
273
267
251
239
233
225
219
211
199
195
189
185
181
175
175
173
173
173
175
179
181
187
191
197
203
219
227
235
255
277
287
299
311
325
337
349
375
387
399
411
423
445
455
467
475
483
491
499
509
511
515
515
517
517
513
511
503
495
469
479
491
471
451
463
475
399
355
313
265
219
119
53
-12
-50
-90
-126
-164
-248
-298
-350
-412
-476
-620
-698
-776
-852
-930
-1068
-1080
-1094
-1136
-1180
-1216
-1252
-1314
-1340
-1366
-1364
-1364
-1396
-1408
-1420
-1426
-1434
-1438
-1442
-1442
-1440
-1438
-1432
-1428
-1412
-1402
-1394
-1382
-1372
-1350
-1338
-1328
-1318
-1310
-1302
-1294
-1282
-1278
-1274
-1274
-1274
-1280
-1286
-1292
-1302
-1312
-1324
-1338
-1368
-1364
-1362
-1384
-1406
-1456
-1480
-1506
-1530
-1556
-1592
-1606
-1622
-1634
-1646
-1654
-1662
-1672
-1672
-1674
-1670
-1668
-1654
-1644
-1634
-1620
-1608
-1592
-1578
-1544
-1536
-1530
-1508
-1486
-1444
-1424
-1404
-1386
-1368
-1350
-1332
-1294
-1278
-1264
-1248
-1232
-1204
-1190
-1176
-1162
-1148
-1124
-1112
-1100
-1088
-1078
-1068
-1058
-1042
-1036
-1030
-1026
-1022
-1020
-1020
-1022
-1026
-1030
-1036
-1044
-1060
-1070
-1082
-1094
-1106
-1130
-1142
-1156
-1168
-1180
-1202
-1210
-1218
-1224
-1230
-1232
-1236
-1234
-1230
-1228
-1220
-1214
-1190
-1202
-1214
-1192
-1172
-1146
-1122
-1108
-1070
-1034
-992
-952
-866
-820
-776
-732
-690
-608
-572
-536
-506
-478
-480
-482
-440
-422
-404
-386
-370
-344
-332
-322
-310
-298
-286
-276
-256
-248
-240
-232
-226
-212
-206
-202
-198
-194
-188
-186
-184
-184
-184
-184
-184
-188
-190
-192
-194
-198
-206
-208
-212
-214
-218
-220
-224
-228
-228
-230
-230
-230
-226
-222
-218
-212
-206
-198
-192
-170
-160
-150
-136
-122
-126
-100
-76
-70
-66
13
0
-16
47
109
199
287
519
647
775
905
1037
1447
1549
1651
1727
1805
1909
2013
1859
1669
1479
1197
915
247
-34
-316
-522
-728
-900
-874
-850
-680
-510
-502
-494
-426
-382
-338
-294
-250
-182
-184
-188
-162
-138
-116
-94
-54
-36
-18
3
25
47
69
91
107
123
151
163
175
187
199
209
219
237
243
249
253
259
269
273
277
281
285
289
295
305
309
315
323
331
355
371
387
377
369
413
411
411
447
485
527
571
667
715
765
817
871
979
1033
1089
1143
1199
1255
1313
1429
1485
1543
1601
1659
1771
1807
1843
1885
1927
1961
1997
1983
1983
1985
1993
2001
2007
2005
2003
1995
1987
1965
1981
1997
1973
1951
1923
1897
1881
1841
1803
1759
1715
1619
1573
1529
1467
1407
1345
1283
1163
1105
1047
991
935
825
769
715
657
599
477
413
351
289
227
197
167
85
51
17
23
27
-14
-16
-18
-28
-38
-42
-48
-54
-56
-58
-58
-58
-56
-54
-52
-48
-46
-40
-38
-36
-34
-32
-30
-30
-28
-28
-30
-30
-32
-38
-40
-44
-48
-52
-56
-60
-68
-72
-76
-78
-82
-88
-88
-88
-86
-86
-78
-72
-66
-56
-48
-34
-22
9
0
-10
13
35
89
113
135
171
207
243
279
349
381
415
447
481
543
559
577
601
625
647
669
683
695
707
715
725
739
743
749
751
755
757
755
755
755
755
753
753
753
753
753
755
759
767
773
779
787
797
809
821
849
865
881
879
877
919
943
969
993
1019
1073
1099
1125
1151
1177
1201
1225
1249
1263
1277
1287
1299
1315
1319
1325
1325
1327
1323
1321
1311
1303
1295
1283
1273
1249
1235
1221
1205
1191
1161
1147
1133
1119
1105
1091
1079
1059
1049
1041
1035
1029
1021
1019
1017
1017
1017
1019
1021
1025
1027
1031
1033
1037
1043
1043
1045
1043
1043
1039
1033
1029
1021
1015
1005
997
975
961
947
933
919
887
869
853
845
837
817
799
753
737
721
705
691
663
651
639
627
617
609
601
587
583
579
577
577
581
585
591
595
601
619
633
647
641
635
657
681
725
721
717
753
789
889
955
1021
1013
1005
1117
1231
1515
1675
1837
1997
2159
2625
2787
2951
3025
3101
2735
2669
2603
2317
2031
1667
1303
607
447
287
221
153
235
335
437
433
431
421
411
431
445
461
473
485
491
493
495
497
501
505
505
507
505
505
505
505
505
505
505
505
505
509
511
513
515
519
523
527
537
543
549
555
563
579
587
595
603
611
629
637
645
653
661
669
677
691
697
703
709
715
725
729
735
739
743
747
751
759
763
767
771
775
781
785
789
793
797
801
805
813
817
821
823
825
831
831
833
833
833
833
831
829
825
823
819
817
807
801
795
787
781
765
755
747
735
725
713
701
675
659
645
647
651
613
591
569
543
517
501
465
431
391
353
311
271
185
141
97
51
5
-86
-132
-178
-224
-272
-320
-370
-468
-506
-544
-602
-660
-770
-818
-866
-908
-950
-930
-930
-930
-940
-952
-958
-964
-964
-958
-954
-948
-944
-928
-916
-906
-894
-882
-868
-856
-830
-816
-802
-788
-774
-746
-732
-718
-704
-690
-660
-646
-632
-616
-602
-586
-572
-540
-524
-510
-494
-478
-448
-432
-418
-402
-388
-374
-360
-334
-322
-310
-300
-290
-270
-262
-254
-246
-240
-234
-228
-218
-214
-212
-208
-206
-202
-200
-198
-198
-198
-198
-198
-200
-202
-204
-206
-210
-216
-220
-224
-228
-232
-242
-246
-250
-254
-258
-262
-266
-270
-270
-272
-272
-272
-270
-266
-264
-258
-254
-244
-236
-230
-222
-216
-208
-200
-184
-176
-168
-160
-152
-136
-128
-122
-114
-106
-100
-94
-80
-72
-66
-58
-52
-36
-28
-20
-10
-2
17
29
39
51
63
77
91
119
135
151
167
183
215
231
247
263
279
293
309
337
349
361
371
381
397
403
409
411
415
417
415
415
411
407
401
395
379
369
361
351
341
319
307
297
285
275
263
253
235
227
217
209
199
185
179
173
169
165
163
161
159
159
159
161
163
171
175
179
185
191
203
211
217
223
229
235
239
247
249
251
251
253
251
247
239
233
227
219
199
189
179
169
157
131
121
111
99
85
75
57
37
45
53
11
-32
43
-4
-54
35
123
377
541
707
897
1087
1281
1475
1995
2225
2457
2585
2713
2653
2451
2249
1911
1573
761
409
59
-198
-458
-582
-708
-724
-662
-602
-532
-462
-436
-422
-410
-382
-356
-314
-274
-250
-230
-210
-194
-178
-146
-132
-118
-106
-96
-78
-70
-62
-56
-50
-46
-42
-36
-34
-32
-30
-30
-28
-26
-26
-24
-24
-22
-22
-16
-12
-10
-4
0
11
19
27
35
43
53
63
85
97
109
121
133
159
173
185
199
211
237
249
261
273
287
299
313
337
347
359
369
379
399
407
415
421
429
433
439
443
443
445
443
441
431
423
417
407
399
375
361
349
333
319
303
287
273
255
237
217
197
159
141
121
101
81
61
41
0
-22
-44
-66
-90
-142
-168
-196
-214
-232
-298
-332
-368
-404
-440
-476
-512
-582
-616
-652
-686
-720
-786
-816
-848
-860
-872
-894
-916
-954
-966
-978
-992
-1006
-1030
-1040
-1052
-1062
-1074
-1092
-1100
-1108
-1116
-1124
-1130
-1136
-1146
-1150
-1154
-1156
-1158
-1160
-1158
-1156
-1152
-1148
-1142
-1136
-1118
-1106
-1096
-1082
-1070
-1038
-1038
-1038
-1018
-998
-976
-954
-910
-888
-866
-842
-820
-776
-754
-734
-712
-692
-652
-632
-612
-592
-572
-552
-534
-496
-478
-460
-440
-422
-376
-360
-344
-330
-316
-302
-290
-266
-256
-246
-238
-230
-218
-214
-212
-210
-208
-208
-210
-212
-214
-218
-222
-226
-234
-238
-244
-248
-252
-260
-262
-266
-268
-272
-272
-274
-272
-270
-270
-266
-264
-254
-248
-242
-234
-228
-210
-198
-188
-176
-164
-150
-138
-108
-90
-74
-72
-72
-34
-12
7
29
49
73
95
139
159
179
195
209
235
253
261
269
279
281
283
281
281
277
275
265
259
253
239
221
213
205
197
187
179
171
159
153
147
143
137
131
129
127
129
129
131
131
139
145
151
159
165
185
197
209
223
235
265
261
259
279
301
323
347
399
415
433
467
501
571
607
643
677
713
727
743
791
797
805
815
827
843
845
849
847
847
837
827
819
807
795
779
765
769
745
721
697
673
623
605
587
571
555
543
531
511
505
499
497
495
497
501
507
513
521
543
559
575
573
571
589
607
659
661
665
705
747
859
841
825
913
1001
1129
1259
1553
1707
1863
2003
2143
2699
2787
2875
2837
2801
2715
2379
2045
1651
1257
937
619
137
3
-132
-176
-222
-196
-114
-32
-24
-18
-10
-4
9
29
47
67
87
129
143
157
171
185
201
215
241
251
263
275
287
307
317
327
335
343
359
365
373
379
387
393
401
415
423
431
441
451
471
483
495
507
521
533
547
577
591
605
619
633
657
667
679
687
695
707
709
713
713
713
711
709
699
693
687
679
673
659
651
643
637
631
625
619
609
605
603
599
597
593
591
591
587
585
581
577
573
567
563
555
549
531
519
509
495
483
451
435
421
419
419
399
379
335
309
285
259
235
219
185
151
113
73
-10
-54
-98
-140
-184
-224
-264
-340
-374
-408
-440
-472
-536
-566
-598
-630
-662
-694
-728
-770
-794
-818
-838
-860
-872
-884
-898
-908
-918
-926
-936
-948
-952
-958
-960
-964
-970
-972
-974
-974
-976
-978
-978
-980
-980
-982
-982
-982
-980
-978
-976
-974
-972
-964
-958
-954
-948
-942
-934
-928
-912
-902
-894
-884
-876
-860
-850
-842
-834
-826
-810
-802
-796
-790
-784
-778
-774
-764
-760
-758
-754
-752
-748
-746
-746
-746
-746
-746
-746
-750
-752
-754
-758
-762
-772
-778
-784
-790
-798
-816
-826
-836
-848
-860
-872
-886
-912
-926
-940
-952
-966
-992
-1004
-1016
-1026
-1036
-1044
-1052
-1064
-1066
-1070
-1070
-1072
-1068
-1064
-1060
-1054
-1050
-1036
-1026
-1018
-1010
-1002
-992
-982
-964
-954
-946
-936
-928
-910
-900
-892
-882
-872
-862
-854
-832
-820
-808
-796
-784
-758
-744
-730
-714
-700
-684
-670
-642
-626
-612
-598
-586
-562
-550
-540
-530
-520
-506
-498
-492
-486
-482
-478
-474
-468
-464
-462
-458
-456
-450
-446
-442
-436
-432
-426
-420
-404
-394
-386
-374
-364
-340
-326
-312
-296
-282
-250
-246
-244
-224
-206
-186
-166
-126
-106
-86
-62
-40
-10
3
17
31
43
53
63
81
87
93
97
101
107
107
107
107
107
105
105
103
101
99
99
99
101
103
103
107
109
119
125
131
139
145
153
159
175
185
193
201
209
225
233
241
247
255
273
277
283
291
299
309
321
343
339
337
355
375
321
359
399
457
517
507
497
715
853
993
1151
1309
1633
1855
2077
2257
2437
2531
2627
2323
2293
2265
1987
1709
1023
663
305
97
-112
-332
-316
-300
-208
-116
-78
-40
-46
-34
-24
-4
15
55
59
61
69
75
83
89
101
105
109
113
115
119
121
123
125
127
131
133
135
139
143
147
151
161
167
173
181
187
203
211
219
229
237
255
275
285
295
305
315
335
345
355
363
373
391
399
407
413
421
427
435
449
453
459
465
471
483
487
493
499
505
511
519
535
543
553
563
575
599
613
627
641
657
689
693
699
719
741
765
791
823
837
853
865
877
895
901
907
907
909
909
909
899
889
879
863
849
869
843
819
815
811
775
739
655
609
565
517
469
371
323
275
231
187
105
69
31
0
-34
-62
-90
-140
-162
-186
-206
-226
-276
-300
-324
-346
-368
-386
-404
-432
-444
-458
-466
-474
-486
-488
-490
-488
-486
-474
-466
-458
-446
-436
-422
-410
-382
-366
-352
-338
-324
-298
-286
-274
-264
-256
-248
-242
-232
-228
-226
-224
-224
-226
-226
-228
-228
-230
-234
-234
-234
-232
-232
-230
-228
-220
-214
-208
-200
-192
-174
-164
-154
-142
-132
-120
-108
-84
-72
-62
-50
-38
-16
-4
5
15
25
45
55
65
75
83
93
101
121
131
139
147
155
173
181
187
195
201
207
213
221
223
225
227
227
225
223
219
215
211
205
199
185
179
171
163
155
139
133
125
119
111
101
97
93
91
87
87
85
85
87
89
93
95
103
109
115
123
129
137
145
163
173
183
195
205
229
241
253
267
281
309
323
339
355
371
385
401
431
445
459
471
485
511
523
535
545
555
565
575
593
601
609
615
623
637
643
651
657
665
677
683
691
697
703
709
715
725
731
737
741
747
755
759
763
765
769
771
775
777
777
779
779
779
777
775
775
771
769
763
759
757
753
749
745
741
731
727
723
717
713
705
699
695
689
683
677
673
661
655
649
643
639
629
625
621
619
617
613
611
613
615
617
625
633
607
625
643
631
619
699
695
693
759
825
911
999
1209
1323
1439
1553
1667
1799
2007
2217
2273
2329
2295
2263
2223
1953
1685
1349
1013
365
175
-14
-122
-230
-242
-72
97
101
105
131
157
231
267
303
329
357
307
317
329
339
349
355
361
367
367
367
369
371
371
369
369
365
363
355
349
345
339
333
325
319
305
297
291
283
277
265
259
255
251
249
247
247
249
253
259
273
281
291
301
311
337
351
365
381
397
399
403
439
457
477
497
517
559
581
603
625
649
673
697
745
769
795
819
845
893
915
939
961
983
997
1011
1041
1053
1065
1075
1087
1103
1109
1117
1121
1125
1131
1133
1135
1135
1137
1135
1135
1131
1129
1127
1123
1119
1107
1099
1093
1083
1075
1065
1057
1031
1039
1049
1031
1013
969
941
915
909
903
817
769
723
675
629
583
539
457
423
389
361
333
343
323
303
287
271
259
247
227
219
211
203
193
179
173
167
163
157
149
145
141
139
137
135
133
131
131
131
133
133
139
143
145
151
155
161
165
179
187
193
201
207
223
231
239
251
265
271
277
283
289
293
297
305
307
311
313
317
321
323
327
329
331
333
337
343
345
349
353
357
365
369
373
377
381
385
391
399
403
407
411
415
423
427
431
433
437
443
445
449
451
453
453
455
457
457
457
457
457
453
451
449
445
443
439
435
427
421
417
411
407
399
393
389
385
381
373
369
365
361
357
353
351
343
339
335
331
327
317
311
305
299
293
285
279
261
253
237
227
207
197
185
175
165
143
133
123
115
105
97
89
75
69
63
61
57
53
55
55
57
59
65
69
83
93
101
111
121
143
155
167
181
193
217
231
243
253
265
275
287
309
317
327
335
345
359
365
371
375
381
385
389
395
397
399
399
399
399
397
397
395
395
391
389
383
379
375
371
367
359
353
349
343
339
329
325
321
315
311
307
305
297
293
291
289
287
283
281
281
281
281
281
281
285
287
291
297
303
311
319
329
337
345
373
367
363
389
415
403
391
491
475
459
547
635
873
1019
1167
1335
1505
1655
1805
2053
2381
2711
2671
2631
2503
2443
2385
2025
1665
811
491
173
-32
-238
-294
-352
-262
-188
-116
-126
-138
-118
-106
-94
-78
-64
-48
-34
-18
-8
1
11
19
37
45
51
57
63
75
81
87
93
97
103
107
117
123
127
133
139
153
161
167
177
185
195
203
225
237
249
261
275
303
317
333
349
365
381
397
431
441
451
467
485
519
535
553
569
585
621
637
655
673
691
709
729
767
787
807
827
847
889
903
919
933
947
959
971
991
999
1007
1013
1019
1025
1025
1027
1025
1023
1013
1005
999
989
979
965
953
925
909
893
893
895
853
829
807
781
755
735
717
657
625
593
559
525
453
413
375
333
291
203
155
107
57
7
-42
-94
-216
-254
-292
-336
-382
-462
-496
-530
-556
-584
-580
-576
-604
-616
-630
-638
-648
-658
-660
-664
-664
-666
-664
-660
-656
-650
-646
-638
-630
-612
-602
-592
-580
-570
-548
-538
-528
-518
-508
-498
-488
-472
-464
-458
-452
-446
-436
-432
-428
-424
-422
-418
-416
-412
-410
-408
-406
-404
-400
-396
-394
-390
-388
-382
-378
-374
-370
-366
-362
-358
-350
-346
-342
-338
-336
-330
-326
-322
-318
-316
-312
-310
-304
-300
-298
-292
-288
-280
-274
-268
-262
-256
-242
-234
-228
-220
-212
-204
-196
-180
-172
-164
-156
-150
-136
-130
-124
-118
-112
-108
-104
-96
-92
-88
-84
-80
-72
-68
-64
-60
-56
-46
-40
-36
-30
-26
-20
-16
-8
-4
0
3
7
11
13
13
13
13
13
13
9
7
5
3
1
0
0
-2
-2
-4
-4
-2
0
1
3
7
9
15
19
23
27
31
37
41
43
47
49
51
51
53
53
51
51
49
47
45
41
39
37
35
31
25
23
19
17
15
11
11
9
9
9
9
11
13
15
17
21
23
31
35
39
45
49
61
67
71
77
83
89
95
109
115
121
129
137
151
159
167
177
185
201
211
219
229
237
253
271
277
285
291
299
309
313
317
319
321
321
323
319
315
313
309
305
293
285
279
271
263
247
241
233
225
217
211
203
195
193
189
189
189
189
195
199
211
221
233
221
269
259
249
343
405
469
463
457
669
803
939
1093
1249
1405
1563
1797
2063
2331
2423
2517
2181
2019
1859
1689
1521
1119
717
59
-174
-410
-502
-594
-544
-392
-240
-238
-236
-206
-178
-96
-58
-20
7
33
0
13
27
39
51
67
71
75
79
81
85
87
91
93
93
95
95
97
99
101
103
105
109
111
119
125
129
135
141
155
163
171
181
191
213
225
237
247
259
273
287
317
333
349
351
355
391
409
427
447
467
489
511
559
583
609
635
663
709
741
775
807
841
885
909
935
957
979
999
1019
1033
1045
1057
1067
1077
1091
1097
1103
1105
1109
1111
1113
1113
1111
1109
1105
1103
1093
1085
1079
1071
1063
1043
1031
1021
1007
993
977
961
969
949
929
907
885
837
811
785
759
733
705
679
625
597
571
543
517
465
439
415
389
365
341
317
269
247
225
203
181
139
119
99
81
61
29
15
0
-12
-26
-36
-48
-68
-76
-84
-90
-96
-104
-106
-110
-110
-112
-110
-110
-106
-102
-100
-94
-90
-78
-72
-66
-58
-50
-32
-22
-12
0
9
21
31
55
67
79
93
105
133
147
159
173
187
201
215
241
253
265
275
287
309
317
325
333
341
351
355
359
361
363
363
363
363
359
357
353
351
345
341
337
333
329
325
321
315
311
309
307
305
301
299
299
299
299
299
299
301
301
301
301
303
307
307
309
309
311
313
313
313
313
315
315
315
313
311
311
309
307
301
297
295
291
287
283
279
267
261
255
249
231
225
217
209
201
183
175
167
159
149
141
133
115
107
97
89
81
65
59
51
45
37
33
27
17
15
11
11
9
9
11
13
17
21
29
37
43
51
57
65
71
87
95
103
109
115
127
133
137
139
141
143
143
141
139
137
133
127
115
109
101
93
83
65
57
47
39
31
23
13
0
-6
-14
-18
-24
-30
-32
-34
-34
-34
-32
-30
-24
-18
-14
-6
0
13
23
31
41
49
69
79
89
99
109
119
129
147
157
165
173
181
195
201
207
213
217
221
225
231
233
235
237
237
237
237
237
237
235
233
231
229
225
221
221
219
223
223
223
233
241
227
193
159
187
215
265
315
353
461
605
751
1083
1227
1371
1627
1883
2077
2273
2109
2017
1925
1819
1715
969
549
129
-136
-404
-724
-744
-766
-698
-630
-526
-422
-386
-348
-310
-266
-224
-148
-120
-94
-98
-102
-90
-80
-54
-44
-36
-32
-28
-24
-22
-22
-24
-26
-32
-36
-42
-48
-56
-62
-70
-84
-92
-100
-106
-112
-126
-130
-136
-140
-144
-146
-148
-148
-146
-146
-142
-138
-126
-118
-110
-100
-90
-66
-52
-38
-22
-8
9
25
35
57
77
99
119
163
179
195
209
223
237
249
271
281
291
299
309
325
331
339
345
351
357
363
375
381
389
395
401
413
419
425
429
435
445
449
453
455
457
457
457
453
449
445
439
433
417
407
399
387
375
361
347
317
301
285
281
277
241
223
203
183
163
121
101
79
57
35
13
-10
-58
-82
-106
-132
-158
-210
-230
-250
-278
-306
-336
-366
-430
-464
-498
-532
-568
-640
-674
-710
-744
-780
-844
-856
-868
-890
-914
-924
-934
-960
-970
-980
-986
-994
-1004
-1006
-1008
-1008
-1008
-1006
-1004
-994
-986
-980
-972
-964
-946
-934
-924
-910
-898
-872
-858
-846
-830
-816
-800
-786
-758
-744
-730
-716
-704
-680
-668
-658
-650
-642
-636
-630
-624
-622
-622
-624
-626
-632
-636
-642
-648
-654
-660
-666
-680
-686
-692
-696
-702
-708
-710
-712
-712
-714
-712
-710
-710
-706
-704
-702
-700
-694
-690
-688
-684
-682
-678
-676
-674
-672
-670
-666
-664
-660
-656
-654
-650
-648
-638
-634
-630
-624
-620
-608
-602
-598
-594
-590
-586
-582
-576
-574
-572
-570
-570
-572
-572
-574
-576
-578
-580
-584
-590
-592
-594
-596
-598
-600
-598
-598
-596
-596
-588
-584
-580
-572
-566
-558
-550
-530
-518
-506
-492
-480
-452
-434
-418
-416
-416
-398
-380
-340
-318
-298
-274
-252
-204
-178
-154
-126
-100
-56
-24
7
39
71
103
135
195
225
253
283
313
373
405
439
475
511
549
589
673
717
763
807
851
935
971
1009
1005
1003
1023
1045
1055
1065
1077
1085
1093
1103
1107
1113
1115
1119
1125
1127
1129
1131
1133
1133
1135
1139
1141
1143
1145
1147
1151
1151
1153
1155
1157
1157
1159
1161
1161
1163
1165
1167
1175
1177
1179
1183
1189
1207
1217
1227
1217
1209
1229
1249
1217
1255
1295
1347
1401
1417
1507
1597
1699
1803
1927
2051
2311
2433
2555
2737
2919
3165
3205
3247
3173
3101
2939
2583
2229
2011
1795
1403
1013
833
889
945
1083
1223
1503
1537
1573
1623
1673
1699
1727
1781
1813
1845
1859
1873
1919
1929
1939
1951
1965
1987
1993
2001
2005
2011
2013
2017
2017
2013
2011
2005
2001
1987
1979
1971
1959
1949
1937
1927
1901
1887
1873
1857
1843
1813
1797
1783
1767
1753
1739
1727
1703
1693
1685
1677
1671
1665
1663
1663
1665
1669
1687
1701
1715
1701
1687
1709
1733
1737
1777
1817
1861
1905
1999
2045
2093
2137
2183
2223
2265
2335
2329
2325
2323
2323
2337
2341
2345
2341
2337
2317
2303
2291
2305
2321
2295
2271
2253
2213
2175
2133
2091
2003
1959
1915
1871
1829
1785
1743
1659
1617
1577
1535
1495
1409
1365
1321
1273
1227
1129
1081
1035
977
919
873
829
735
691
649
611
575
513
519
527
517
509
497
485
471
465
461
459
459
457
457
457
457
459
461
461
463
463
463
461
461
457
451
447
441
435
419
409
399
387
377
363
351
321
305
291
275
259
227
211
195
179
163
147
131
103
91
79
69
59
45
41
37
37
37
43
51
59
73
85
67
49
91
117
143
163
183
267
309
353
391
429
463
497
495
517
539
547
557
579
587
595
597
601
607
607
607
603
601
595
591
575
565
555
543
533
509
495
483
469
457
443
431
407
395
383
371
361
343
335
329
323
317
311
309
309
309
311
313
317
327
333
341
349
357
377
387
399
409
421
431
443
465
475
487
497
507
523
531
539
543
549
557
559
563
563
563
563
563
559
555
551
547
543
533
527
521
515
509
503
497
485
479
473
467
461
449
443
439
435
431
427
425
421
419
419
419
419
423
425
427
431
437
447
453
459
467
475
481
489
505
513
521
529
537
549
555
561
563
567
569
571
571
569
567
563
559
547
537
529
519
509
487
475
463
449
437
423
411
385
373
361
349
337
313
301
291
279
269
259
249
229
219
209
199
189
171
163
153
147
139
129
123
117
111
103
103
103
117
103
87
109
129
87
69
49
119
187
269
353
569
703
839
995
1153
1489
1687
1887
2109
2333
2635
2517
2399
2283
2167
2033
1899
1175
759
345
17
-312
-572
-614
-656
-598
-540
-440
-340
-318
-306
-294
-242
-192
-136
-138
-140
-124
-110
-96
-82
-52
-42
-32
-22
-14
5
15
23
31
39
57
65
73
81
89
97
105
119
127
135
143
149
161
167
173
179
183
187
189
195
197
197
197
197
195
193
191
189
187
183
181
179
177
175
175
175
177
181
183
189
193
207
217
225
237
247
261
275
305
305
305
325
347
391
413
435
457
481
525
545
567
587
607
621
635
663
675
687
697
707
723
729
735
737
741
741
743
739
733
729
721
715
695
683
671
655
639
651
629
607
581
557
545
533
461
423
385
345
305
229
191
151
115
77
43
7
-58
-88
-120
-130
-140
-186
-206
-226
-234
-244
-254
-266
-282
-288
-296
-300
-304
-306
-304
-304
-300
-296
-282
-272
-264
-252
-242
-228
-216
-184
-186
-190
-170
-152
-110
-86
-64
-38
-14
13
39
81
111
141
173
203
267
289
311
335
361
405
425
445
451
457
469
481
501
507
515
521
527
533
535
537
537
539
537
537
537
535
533
531
531
527
525
525
523
523
521
519
519
519
519
519
519
519
519
519
519
521
521
521
523
523
523
523
523
521
519
519
517
517
511
507
503
497
493
483
475
469
461
453
445
437
419
409
401
393
385
367
359
353
347
341
335
329
321
317
315
313
311
309
307
307
307
309
309
309
311
311
311
311
313
313
313
315
315
315
315
315
315
313
313
313
313
309
307
307
303
301
295
291
289
285
281
275
269
257
251
237
229
211
201
191
181
169
143
129
113
99
83
83
83
45
25
5
-16
-38
-84
-106
-128
-150
-172
-188
-204
-232
-244
-258
-268
-278
-294
-298
-304
-308
-312
-316
-316
-316
-314
-312
-310
-308
-302
-298
-294
-290
-288
-282
-278
-276
-274
-272
-270
-268
-268
-268
-270
-270
-272
-280
-284
-288
-294
-302
-316
-324
-334
-344
-354
-364
-376
-398
-408
-420
-430
-442
-466
-474
-482
-494
-508
-512
-518
-546
-536
-528
-560
-594
-524
-596
-670
-580
-492
-356
-222
109
283
459
739
1021
1409
1495
1581
1527
1475
1091
791
491
153
-186
-482
-780
-1158
-1214
-1270
-1216
-1164
-906
-898
-890
-858
-828
-790
-752
-688
-702
-718
-716
-716
-700
-694
-690
-688
-688
-690
-690
-692
-692
-694
-694
-696
-696
-696
-696
-694
-692
-684
-678
-672
-664
-656
-644
-634
-606
-590
-574
-578
-582
-540
-516
-492
-466
-442
-390
-364
-338
-312
-286
-262
-238
-192
-172
-152
-134
-116
-88
-72
-58
-44
-30
-16
-4
19
31
43
55
67
89
101
111
123
133
153
163
173
183
193
203
211
227
235
243
249
255
267
273
279
283
289
293
299
309
313
317
321
325
333
335
339
341
343
345
347
347
347
347
345
343
335
329
323
315
307
289
277
265
251
237
221
205
211
191
169
145
121
71
47
23
-6
-36
-66
-96
-158
-190
-224
-258
-292
-366
-404
-442
-480
-520
-594
-604
-614
-636
-658
-660
-664
-688
-694
-702
-704
-706
-708
-704
-702
-696
-690
-682
-674
-652
-640
-628
-614
-600
-568
-564
-562
-544
-528
-490
-470
-450
-430
-410
-388
-366
-320
-296
-272
-248
-226
-182
-160
-140
-124
-110
-96
-82
-58
-48
-38
-30
-24
-14
-12
-10
-8
-8
-12
-14
-18
-22
-26
-30
-34
-44
-48
-54
-58
-62
-66
-68
-70
-68
-68
-66
-66
-58
-52
-48
-42
-38
-24
-18
-12
-6
0
5
9
17
