10344
10326
10327
10338
10345
10344
10346
10354
10359
10347
10315
10280
10261
10267
10289
10313
10336
10360
10384
10401
10406
10399
10389
10377
10360
10336
10314
10309
10328
10359
10382
10385
10376
10368
10368
10370
10365
10353
10339
10326
10312
10300
10297
10308
10330
10345
10342
10326
10317
10326
10348
10362
10359
10344
10333
10330
10327
10315
10301
10297
10306
10315
10310
10298
10300
10330
10377
10408
10404
10376
10354
10361
10386
10400
10384
10348
10316
10305
10312
10324
10336
10354
10382
10415
10437
10438
10417
10386
10359
10343
10340
10349
10365
10384
10402
10417
10428
10433
10426
10409
10391
10384
10391
10406
10415
10410
10393
10370
10345
10318
10295
10288
10306
10340
10368
10372
10355
10341
10344
10358
10358
10334
10303
10296
10329
10381
10414
10406
10367
10327
10304
10295
10289
10285
10293
10317
10342
10346
10322
10286
10265
10267
10282
10289
10283
10273
10269
10275
10291
10322
10376
10448
10524
10585
10635
10702
10811
10955
11094
11189
11235
11262
11294
11319
11293
11180
10985
10757
10545
10373
10235
10126
10052
10030
10057
10112
10163
10193
10209
10226
10256
10294
10325
10339
10332
10309
10283
10269
10274
10297
10327
10352
10370
10381
10387
10382
10359
10324
10293
10284
10303
10336
10363
10370
10359
10340
10319
10300
10287
10285
10298
10324
10354
10377
10384
10377
10361
10349
10349
10359
10368
10362
10337
10308
10298
10321
10368
10410
10420
10395
10353
10323
10322
10350
10393
10433
10453
10449
10424
10395
10379
10385
10403
10419
10423
10417
10411
10413
10422
10434
10449
10466
10485
10497
10499
10494
10493
10503
10519
10529
10529
10524
10524
10537
10558
10582
10601
10610
10607
10591
10569
10550
10543
10546
10555
10568
10590
10625
10669
10704
10717
10707
10689
10675
10665
10651
10631
10617
10622
10646
10671
10680
10673
10665
10667
10670
10655
10613
10561
10527
10525
10540
10547
10532
10507
10495
10504
10519
10519
10491
10443
10397
10366
10357
10362
10372
10382
10389
10393
10395
10397
10399
10398
10387
10359
10316
10270
10238
10233
10256
10291
10315
10318
10305
10295
10302
10325
10349
10355
10342
10321
10311
10321
10347
10370
10372
10347
10305
10269
10260
10283
10326
10365
10385
10383
10370
10356
10339
10319
10297
10290
10307
10341
10370
10371
10342
10304
10284
10292
10318
10343
10354
10348
10333
10313
10297
10292
10305
10332
10360
10368
10348
10310
10269
10241
10229
10235
10260
10300
10345
10375
10376
10353
10326
10317
10326
10337
10334
10315
10291
10275
10269
10272
10286
10315
10348
10365
10342
10281
10216
10186
10204
10250
10289
10302
10298
10295
10295
10288
10266
10237
10217
10214
10221
10224
10221
10221
10234
10255
10276
10288
10296
10302
10302
10290
10272
10262
10269
10287
10295
10283
10262
10255
10269
10290
10298
10288
10273
10265
10259
10243
10216
10199
10216
10263
10308
10319
10293
10256
10235
10236
10241
10233
10217
10212
10231
10263
10287
10285
10259
10227
10210
10218
10246
10273
10285
10275
10254
10240
10239
10244
10245
10241
10240
10247
10251
10236
10200
10165
10161
10199
10254
10292
10294
10272
10253
10249
10255
10259
10265
10278
10296
10302
10284
10256
10244
10262
10294
10308
10286
10248
10229
10245
10275
10289
10273
10249
10245
10267
10298
10314
10310
10304
10310
10324
10329
10315
10290
10276
10283
10305
10326
10330
10315
10286
10255
10233
10231
10248
10269
10271
10240
10185
10137
10123
10148
10190
10222
10231
10226
10220
10217
10214
10208
10204
10207
10212
10214
10213
10217
10236
10260
10270
10247
10199
10155
10143
10164
10196
10212
10206
10190
10183
10194
10218
10242
10256
10256
10253
10264
10306
10383
10483
10588
10690
10794
10910
11035
11153
11242
11290
11294
11250
11145
10970
10745
10509
10306
10156
10052
9981
9944
9949
9989
10041
10078
10095
10110
10140
10177
10202
10202
10187
10182
10197
10216
10218
10202
10183
10179
10185
10184
10168
10150
10157
10196
10252
10293
10303
10286
10259
10237
10225
10220
10220
10221
10221
10215
10205
10199
10204
10221
10243
10264
10280
10287
10278
10248
10202
10162
10152
10181
10233
10275
10283
10258
10224
10208
10221
10253
10287
10309
10314
10307
10292
10276
10264
10259
10266
10282
10305
10327
10339
10336
10321
10306
10305
10323
10352
10380
10396
10398
10386
10365
10339
10319
10315
10334
10366
10391
10399
10401
10413
10442
10472
10485
10476
10463
10460
10466
10466
10459
10461
10491
10541
10574
10560
10509
10469
10479
10534
10585
10596
10572
10551
10559
10582
10588
10562
10525
10507
10512
10520
10508
10478
10452
10451
10468
10484
10478
10449
10410
10376
10358
10354
10353
10342
10316
10285
10274
10293
10327
10344
10324
10281
10247
10241
10251
10249
10222
10188
10175
10190
10217
10234
10237
10235
10234
10224
10200
10167
10144
10140
10148
10151
10144
10139
10147
10166
10184
10194
10200
10205
10203
10187
10164
10156
10185
10243
10291
10295
10257
10211
10192
10204
10223
10230
10229
10237
10260
10281
10274
10236
10191
10168
10179
10207
10223
10211
10179
10143
10121
10115
10123
10139
10159
10179
10192
10194
10185
10173
10168
10177
10196
10216
10223
10211
10181
10146
10124
10126
10151
10184
10203
10201
10189
10185
10197
10213
10210
10185
10156
10147
10161
10177
10170
10138
10112
10120
10162
10208
10229
10218
10189
10159
10130
10100
10079
10084
10120
10171
10206
10205
10176
10141
10117
10107
10104
10109
10124
10146
10162
10163
10155
10150
10153
10159
10158
10145
10128
10116
10107
10098
10090
10094
10113
10139
10155
10152
10142
10142
10161
10188
10205
10201
10180
10151
10120
10089
10062
10047
10048
10064
10083
10097
10106
10116
10132
10151
10165
10164
10150
10132
10121
10123
10129
10126
10104
10074
10060
10077
10120
10162
10174
10155
10126
10116
10132
10157
10162
10135
10087
10044
10029
10045
10075
10097
10099
10086
10077
10086
10115
10147
10164
10157
10132
10105
10089
10087
10094
10100
10099
10093
10090
10104
10138
10178
10202
10194
10159
10120
10100
10104
10118
10134
10151
10180
10215
10238
10231
10198
10163
10149
10155
10159
10145
10114
10090
10090
10108
10124
10119
10094
10063
10046
10048
10066
10083
10086
10072
10050
10037
10041
10059
10078
10091
10101
10114
10127
10128
10109
10081
10065
10072
10096
10113
10110
10090
10070
10060
10060
10064
10068
10072
10074
10069
10054
10036
10027
10033
10049
10066
10082
10106
10152
10225
10323
10437
10558
10671
10767
10838
10892
10943
10999
11051
11069
11021
10899
10721
10524
10340
10183
10045
9922
9820
9759
9756
9802
9863
9906
9922
9935
9971
10034
10094
10120
10106
10073
10048
10039
10039
10044
10063
10105
10155
10180
10157
10099
10046
10028
10044
10067
10078
10080
10083
10089
10086
10068
10048
10044
10060
10078
10085
10084
10095
10124
10156
10164
10140
10106
10089
10099
10118
10119
10097
10071
10066
10090
10127
10152
10151
10129
10105
10099
10113
10131
10135
10116
10085
10064
10066
10085
10107
10125
10145
10171
10198
10209
10192
10161
10147
10170
10218
10257
10260
10226
10184
10166
10182
10219
10257
10278
10286
10291
10305
10325
10341
10337
10313
10282
10268
10284
10323
10368
10400
10415
10416
10410
10398
10381
10362
10347
10344
10355
10377
10400
10415
10416
10409
10407
10417
10436
10446
10435
10406
10384
10386
10406
10417
10398
10358
10326
10323
10341
10348
10319
10264
10212
10186
10188
10201
10209
10208
10192
10157
10104
10051
10024
10039
10086
10131
10148
10137
10116
10105
10103
10096
10080
10062
10056
10064
10077
10081
10073
10064
10064
10076
10093
10104
10102
10088
10070
10056
10048
10043
10038
10035
10035
10042
10053
10062
10065
10061
10050
10031
10006
9984
9981
10012
10072
10135
10171
10169
10144
10121
10111
10105
10086
10057
10039
10054
10095
10131
10129
10087
10034
10008
10023
10062
10088
10081
10050
10024
10028
10059
10092
10102
10083
10055
10044
10055
10074
10081
10070
10056
10056
10069
10074
10052
10009
9973
9973
10013
10067
10103
10105
10082
10053
10032
10020
10015
10014
10017
10020
10020
10016
10013
10016
10026
10039
10050
10062
10075
10085
10083
10066
10044
10030
10029
10032
10025
10008
9998
10006
10028
10043
10035
10011
9994
10005
10037
10067
10075
10060
10036
10018
10004
9990
9975
9968
9975
9992
10008
10012
10008
10008
10017
10028
10030
10016
9996
9984
9990
10005
10015
10013
10003
9998
10004
10019
10032
10038
10040
10042
10048
10054
10052
10040
10023
10004
9988
9977
9975
9985
10005
10028
10041
10039
10024
10007
9995
9991
9994
10002
10010
10016
10014
10003
9985
9964
9945
9933
9935
9958
10000
10044
10065
10050
10012
9982
9985
10013
10040
10041
10018
9992
9983
9997
10024
10049
10060
10048
10010
9959
9925
9937
9998
10075
10122
10119
10087
10068
10079
10109
10126
10118
10094
10069
10052
10039
10030
10032
10048
10066
10069
10048
10014
9986
9975
9976
9982
9990
10003
10014
10011
9989
9961
9950
9963
9989
10003
10001
9994
9998
10013
10023
10015
9995
9979
9975
9975
9967
9946
9921
9904
9903
9916
9942
9972
9993
9994
9973
9947
9939
9961
10001
10037
10058
10073
10106
10171
10269
10390
10521
10648
10762
10856
10927
10980
11011
11009
10959
10855
10706
10529
10340
10153
9981
9846
9765
9738
9745
9763
9781
9806
9847
9898
9943
9970
9979
9980
9977
9971
9960
9948
9944
9952
9970
9989
10006
10017
10022
10016
10003
9991
9988
9992
9991
9974
9946
9926
9930
9958
9996
10026
10043
10051
10051
10039
10015
9987
9974
9984
10013
10043
10057
10054
10040
10025
10015
10014
10024
10048
10081
10109
10112
10081
10031
9987
9975
10002
10048
10084
10094
10081
10061
10047
10043
10045
10055
10074
10096
10109
10101
10076
10056
10059
10087
10122
10147
10156
10161
10174
10195
10215
10223
10214
10191
10160
10137
10140
10179
10240
10293
10308
10287
10257
10249
10267
10294
10307
10307
10308
10316
10318
10299
10265
10244
10258
10303
10348
10367
10360
10350
10351
10364
10373
10366
10345
10320
10301
10295
10303
10319
10328
10317
10284
10248
10228
10230
10239
10236
10216
10188
10164
10141
10118
10097
10089
10099
10113
10111
10093
10076
10078
10091
10085
10041
9977
9934
9939
9981
10021
10030
10011
9982
9959
9945
9938
9945
9972
10010
10041
10049
10042
10039
10050
10066
10064
10037
10003
9985
9993
10016
10036
10041
10037
10033
10037
10044
10043
10024
9988
9949
9926
9930
9954
9982
10000
10011
10026
10048
10060
10050
10021
9998
10004
10036
10067
10065
10027
9977
9945
9951
9993
10052
10106
10130
10110
10056
9996
9961
9964
9985
10001
10005
10010
10031
10062
10078
10064
10033
10009
10005
10008
9997
9968
9941
9936
9951
9968
9969
9959
9955
9969
9995
10018
10028
10024
10012
9994
9973
9953
9945
9953
9973
9991
9993
9978
9957
9948
9960
9988
10011
10014
9994
9972
9968
9989
10013
10015
9988
9953
9942
9964
10001
10024
10019
9995
9971
9954
9942
9932
9935
9957
9991
10013
10006
9972
9935
9918
9926
9947
9965
9975
9974
9967
9953
9938
9930
9933
9946
9958
9968
9977
9989
9999
9998
9979
9953
9934
9935
9951
9966
9969
9957
9942
9935
9941
9962
9993
10025
10044
10039
10011
9974
9946
9942
9959
9983
9995
9986
9957
9926
9912
9926
9960
9992
9998
9973
9932
9903
9904
9932
9966
9984
9979
9961
9947
9947
9959
9977
9993
10006
10021
10036
10040
10023
9984
9939
9916
9932
9980
10030
10054
10043
10015
9993
9988
9996
10006
10017
10032
10050
10059
10050
10027
10011
10019
10044
10061
10045
9999
9947
9915
9910
9922
9938
9957
9983
10008
10014
9986
9939
9906
9912
9949
9982
9981
9947
9910
9901
9924
9960
9984
9985
9970
9954
9947
9952
9966
9979
9977
9960
9938
9934
9954
9983
9993
9970
9932
9908
9910
9921
9917
9891
9867
9872
9911
9968
10022
10075
10142
10228
10326
10419
10505
10596
10698
10807
10908
10986
11025
11006
10909
10734
10514
10302
10137
10014
9905
9797
9711
9684
9720
9784
9830
9844
9845
9863
9894
9915
9914
9904
9914
9946
9979
9985
9966
9945
9940
9948
9954
9954
9960
9977
9991
9981
9945
9919
9937
9999
10062
10074
10024
9948
9899
9904
9950
10002
10034
10040
10027
10007
9990
9984
9992
10003
10005
9990
9968
9955
9959
9971
9980
9981
9984
10001
10030
10054
10053
10026
9991
9975
9990
10027
10064
10082
10079
10067
10061
10066
10076
10081
10074
10061
10051
10050
10056
10065
10074
10086
10108
10137
10163
10169
10150
10120
10099
10107
10139
10177
10198
10197
10187
10185
10198
10215
10222
10220
10220
10235
10263
10291
10304
10305
10304
10309
10316
10315
10303
10291
10296
10322
10359
10391
10409
10410
10392
10357
10308
10259
10225
10219
10238
10266
10287
10294
10290
10285
10281
10278
10266
10236
10186
10128
10084
10070
10085
10108
10112
10093
10064
10049
10054
10065
10065
10048
10028
10017
10018
10016
10001
9977
9963
9971
9999
10032
10051
10054
10046
10035
10022
10005
9984
9967
9963
9979
10005
10024
10022
10003
9984
9980
9991
10002
9995
9975
9959
9964
9983
9993
9977
9946
9930
9950
9997
10039
10052
10039
10025
10025
10034
10032
10011
9980
9955
9945
9945
9949
9956
9969
9985
9993
9986
9968
9957
9964
9987
10011
10024
10026
10024
10025
10027
10025
10018
10008
9997
9987
9980
9980
9988
10001
10012
10015
10012
10012
10020
10032
10037
10028
10008
9986
9974
9970
9969
9968
9969
9975
9985
9990
9984
9969
9958
9958
9965
9965
9950
9928
9919
9934
9963
9980
9963
9921
9883
9875
9902
9941
9967
9971
9963
9957
9961
9972
9985
9996
10000
9994
9975
9950
9933
9936
9953
9972
9978
9971
9962
9959
9963
9967
9970
9972
9974
9973
9964
9953
9949
9958
9973
9980
9974
9962
9955
9954
9946
9922
9891
9876
9895
9938
9979
9992
9974
9943
9920
9913
9920
9932
9946
9963
9982
9998
10008
10010
10000
9977
9946
9923
9922
9949
9986
10008
9998
9964
9931
9922
9939
9969
9991
9993
9976
9948
9920
9902
9900
9909
9919
9924
9924
9926
9932
9939
9942
9945
9952
9968
9982
9984
9971
9958
9962
9984
10006
10010
9994
9970
9954
9947
9944
9948
9970
10013
10059
10081
10063
10022
9993
9999
10030
10059
10066
10052
10027
9997
9964
9936
9929
9954
9998
10030
10031
10006
9982
9975
9981
9984
9977
9966
9960
9950
9923
9882
9850
9848
9879
9922
9958
9980
9998
10012
10010
9984
9944
9917
9919
9940
9958
9958
9946
9933
9923
9910
9895
9890
9905
9934
9954
9950
9929
9911
9912
9927
9944
9958
9979
10018
10077
10154
10251
10370
10503
10625
10720
10792
10864
10946
11015
11023
10945
10799
10632
10476
10328
10166
9987
9820
9705
9660
9675
9720
9774
9823
9863
9888
9901
9913
9931
9955
9974
9979
9970
9956
9944
9938
9939
9949
9966
9977
9970
9941
9907
9892
9906
9934
9953
9953
9943
9940
9947
9957
9962
9966
9975
9988
9996
9991
9982
9983
10003
10029
10041
10029
10001
9976
9969
9977
9991
9998
10000
10003
10011
10021
10026
10020
10009
10004
10015
10037
10057
10062
10056
10048
10048
10050
10045
10032
10025
10037
10066
10095
10106
10096
10072
10048
10033
10035
10061
10108
10157
10181
10164
10123
10093
10100
10134
10166
10175
10171
10175
10195
10215
10219
10207
10201
10215
10243
10265
10273
10276
10285
10301
10314
10317
10315
10315
10314
10307
10294
10286
10292
10300
10292
10263
10236
10242
10290
10348
10372
10346
10295
10255
10244
10246
10241
10226
10218
10225
10238
10235
10205
10161
10129
10119
10125
10124
10106
10079
10059
10053
10055
10051
10038
10025
10025
10037
10047
10037
10010
9983
9974
9983
9992
9988
9975
9969
9976
9988
9991
9985
9979
9974
9956
9913
9862
9844
9888
9978
10060
10087
10058
10013
9984
9976
9974
9978
10001
10048
10091
10086
10023
9944
9907
9932
9984
10010
9993
9963
9958
9985
10013
10012
9985
9959
9960
9987
10025
10054
10063
10047
10008
9965
9944
9962
10005
10037
10030
9996
9972
9984
10019
10045
10038
10011
9989
9984
9983
9970
9950
9942
9958
9985
10003
10004
10001
10005
10001
9967
9900
9837
9827
9883
9964
10008
9993
9955
9951
10003
10067
10081
10023
9936
9887
9904
9956
9986
9971
9937
9924
9949
9986
10003
9992
9971
9964
9972
9982
9988
9992
10003
10015
10012
9988
9954
9936
9946
9971
9985
9965
9919
9876
9869
9910
9978
10031
10033
9985
9924
9897
9920
9970
10003
9995
9960
9932
9929
9941
9946
9936
9919
9909
9908
9911
9917
9933
9960
9989
10001
9990
9968
9955
9957
9967
9977
9983
9987
9987
9978
9963
9954
9959
9969
9965
9938
9907
9902
9933
9979
10006
10000
9977
9962
9959
9957
9943
9927
9928
9952
9985
10002
9993
9969
9944
9927
9921
9924
9940
9967
9995
10012
10011
9993
9961
9924
9890
9874
9886
9925
9971
10001
10002
9977
9940
9909
9898
9918
9963
10014
10044
10038
10010
9990
9996
10020
10038
10040
10033
10030
10031
10021
9997
9978
9989
10029
10069
10072
10030
9974
9943
9954
9987
10013
10010
9979
9936
9899
9884
9895
9922
9942
9941
9925
9915
9925
9952
9973
9975
9962
9950
9945
9940
9929
9913
9903
9904
9911
9921
9933
9950
9964
9957
9923
9878
9851
9861
9898
9935
9955
9958
9955
9955
9961
9990
10061
10178
10312
10420
10481
10518
10573
10672
10797
10911
10984
11013
10995
10919
10772
10561
10329
10125
9973
9865
9779
9708
9667
9668
9708
9770
9831
9873
9888
9873
9844
9827
9847
9902
9959
9979
9953
9907
9880
9890
9923
9953
9969
9979
9994
10008
10007
9983
9951
9933
9940
9958
9967
9963
9959
9970
9996
10015
10009
9978
9949
9948
9975
10008
10019
10006
9990
9991
10007
10014
9995
9962
9943
9958
9998
10030
10033
10012
9993
9990
9996
9990
9963
9935
9933
9968
10023
10067
10079
10062
10040
10029
10035
10047
10056
10061
10067
10075
10083
10084
10081
10084
10100
10127
10149
10154
10145
10139
10152
10184
10214
10221
10202
10174
10156
10159
10176
10198
10214
10223
10225
10220
10214
10215
10231
10259
10289
10309
10313
10312
10318
10334
10352
10357
10341
10312
10288
10282
10294
10311
10320
10321
10322
10329
10335
10329
10310
10285
10268
10258
10238
10198
10145
10104
10094
10110
10126
10126
10111
10098
10092
10082
10059
10027
10006
10006
10013
10006
9981
9954
9947
9963
9982
9990
9988
9992
10011
10029
10029
10007
9980
9969
9981
10002
10016
10014
9999
9978
9960
9953
9961
9978
9989
9984
9969
9961
9975
10000
10017
10012
9995
9985
9987
9987
9972
9949
9942
9968
10010
10035
10019
9976
9944
9951
9993
10041
10064
10053
10020
9986
9963
9952
9950
9956
9974
10007
10046
10076
10077
10044
9991
9946
9930
9939
9955
9959
9949
9940
9946
9970
9997
10013
10016
10010
10004
9998
9989
9975
9963
9963
9981
10008
10025
10016
9981
9937
9913
9925
9967
10018
10055
10066
10052
10021
9986
9960
9949
9948
9943
9923
9894
9881
9904
9960
10017
10043
10029
9992
9958
9935
9921
9912
9914
9929
9951
9961
9951
9936
9935
9952
9971
9968
9943
9916
9909
9924
9944
9957
9966
9982
10005
10019
10011
9986
9965
9966
9984
10000
9998
9981
9962
9951
9948
9944
9934
9923
9918
9924
9941
9963
9982
9995
10000
9996
9983
9965
9950
9944
9949
9955
9948
9924
9897
9890
9916
9961
9998
10004
9982
9949
9926
9917
9919
9929
9948
9973
9993
9996
9983
9968
9965
9976
9990
10000
10001
9993
9970
9928
9881
9864
9902
9986
10064
10083
10031
9951
9901
9913
9966
10016
10028
10007
9981
9975
9992
10017
10032
10034
10029
10030
10036
10040
10028
10002
9976
9972
9996
10031
10057
10062
10051
10036
10019
10000
9984
9985
10009
10042
10053
10020
9954
9894
9875
9900
9944
9978
9989
9986
9979
9973
9974
9985
10006
10022
10016
9981
9934
9902
9897
9911
9924
9931
9942
9967
9999
10015
10001
9962
9923
9905
9913
9935
9954
9959
9946
9921
9900
9902
9939
10008
10089
10161
10217
10262
10308
10363
10431
10517
10625
10749
10873
10967
11005
10976
10887
10753
10591
10412
10229
10059
9919
9820
9768
9759
9781
9820
9858
9878
9876
9859
9849
9864
9903
9948
9976
9981
9976
9985
10011
10035
10033
9999
9953
9923
9923
9944
9964
9969
9965
9965
9979
10006
10033
10045
10033
10006
9985
9989
10019
10054
10069
10056
10034
10027
10037
10046
10039
10021
10014
10029
10045
10036
10000
9968
9971
10010
10050
10059
10040
10021
10025
10044
10059
10066
10077
10099
10118
10112
10081
10054
10061
10096
10124
10116
10079
10047
10045
10069
10098
10120
10141
10163
10176
10167
10142
10128
10144
10183
10219
10231
10226
10223
10229
10235
10230
10222
10231
10263
10304
10326
10320
10295
10273
10269
10286
10321
10364
10398
10405
10382
10343
10316
10322
10362
10412
10448
10453
10427
10381
10336
10311
10317
10344
10370
10379
10372
10364
10359
10347
10316
10274
10247
10246
10260
10260
10238
10217
10221
10247
10257
10219
10142
10071
10044
10059
10085
10095
10093
10099
10118
10132
10122
10089
10055
10040
10047
10064
10075
10072
10057
10036
10016
10010
10021
10040
10053
10055
10054
10062
10077
10083
10069
10046
10040
10067
10108
10129
10110
10062
10021
10015
10041
10077
10098
10097
10081
10064
10060
10072
10097
10119
10127
10111
10077
10036
10001
9984
9995
10037
10095
10143
10154
10124
10075
10036
10023
10033
10050
10069
10093
10121
10145
10152
10137
10103
10066
10039
10031
10044
10070
10094
10103
10096
10087
10091
10107
10118
10109
10088
10076
10085
10102
10104
10085
10059
10042
10037
10031
10024
10031
10065
10113
10139
10117
10063
10018
10013
10045
10084
10106
10111
10108
10100
10085
10068
10062
10071
10078
10063
10029
10005
10020
10063
10095
10085
10050
10038
10075
10139
10176
10153
10086
10020
9993
10012
10061
10118
10159
10168
10141
10095
10061
10056
10071
10080
10069
10053
10052
10069
10080
10064
10029
10006
10020
10063
10100
10107
10084
10051
10028
10025
10040
10066
10090
10096
10077
10044
10025
10037
10074
10112
10133
10135
10130
10120
10097
10061
10030
10024
10050
10083
10096
10081
10056
10046
10060
10082
10097
10099
10091
10081
10071
10066
10074
10094
10116
10122
10104
10072
10043
10027
10023
10028
10047
10080
10117
10136
10124
10090
10064
10065
10093
10126
10147
10158
10167
10177
10181
10173
10160
10157
10167
10181
10184
10168
10145
10129
10123
10122
10115
10103
10090
10084
10082
10077
10065
10047
10035
10037
10056
10084
10113
10131
10137
10134
10124
10113
10106
10106
10115
10124
10125
10111
10088
10070
10069
10083
10099
10105
10101
10094
10089
10083
10071
10058
10053
10062
10081
10094
10090
10076
10065
10064
10066
10059
10042
10031
10049
10107
10201
10314
10431
10539
10630
10704
10765
10828
10909
11007
11102
11161
11155
11072
10923
10730
10518
10313
10142
10019
9943
9897
9860
9829
9820
9847
9905
9967
10009
10026
10039
10065
10100
10120
10109
10079
10061
10076
10116
10148
10145
10107
10059
10034
10047
10091
10143
10173
10166
10126
10078
10047
10046
10066
10095
10127
10161
10189
10193
10159
10097
10045
10037
10073
10118
10136
10119
10097
10098
10123
10155
10180
10204
10233
10254
10243
10188
10117
10075
10090
10146
10197
10211
10187
10150
10126
10127
10152
10190
10224
10236
10220
10187
10162
10163
10190
10226
10258
10285
10303
10304
10281
10243
10216
10221
10253
10282
10287
10276
10279
10311
10353
10371
10351
10316
10300
10318
10358
10394
10411
10410
10400
10388
10383
10388
10406
10427
10442
10452
10464
10486
10510
10520
10511
10491
10480
10482
10488
10488
10484
10489
10501
10503
10478
10432
10393
10385
10403
10422
10418
10392
10359
10334
10315
10296
10275
10256
10243
10237
10234
10235
10235
10229
10216
10207
10217
10247
10269
10249
10182
10105
10067
10085
10129
10154
10146
10129
10136
10165
10184
10172
10137
10112
10114
10131
10139
10135
10135
10156
10191
10214
10203
10161
10109
10067
10049
10062
10102
10154
10194
10201
10175
10137
10108
10098
10101
10110
10127
10158
10192
10211
10203
10174
10144
10127
10125
10132
10144
10160
10174
10179
10173
10170
10181
10202
10212
10189
10140
10101
10099
10133
10172
10188
10182
10171
10166
10154
10123
10079
10051
10066
10116
10166
10184
10167
10140
10130
10144
10164
10170
10157
10138
10125
10122
10124
10125
10124
10126
10134
10143
10144
10133
10117
10107
10111
10120
10119
10103
10085
10082
10101
10127
10135
10118
10095
10092
10115
10146
10157
10142
10120
10116
10136
10161
10168
10151
10123
10101
10086
10071
10054
10049
10068
10111
10156
10179
10173
10150
10128
10113
10102
10092
10090
10104
10130
10152
10151
10125
10091
10066
10058
10064
10076
10094
10117
10139
10155
10159
10155
10148
10135
10111
10075
10045
10034
10047
10068
10080
10083
10091
10114
10141
10149
10129
10101
10091
10108
10134
10142
10126
10103
10090
10090
10092
10089
10089
10103
10124
10134
10121
10096
10077
10075
10082
10085
10086
10097
10122
10143
10141
10116
10090
10087
10108
10131
10139
10132
10130
10140
10153
10153
10139
10129
10137
10159
10179
10182
10175
10170
10177
10190
10201
10205
10201
10191
10174
10153
10137
10134
10142
10150
10149
10139
10130
10128
10130
10126
10116
10104
10094
10085
10073
10065
10078
10116
10159
10171
10129
10054
9999
10008
10081
10172
10223
10211
10153
10088
10047
10034
10039
10046
10051
10054
10054
10056
10059
10068
10079
10085
10080
10066
10052
10051
10069
10106
10159
10228
10312
10412
10518
10620
10709
10783
10851
10920
10992
11062
11109
11111
11047
10912
10719
10499
10290
10122
10008
9941
9904
9880
9864
9862
9886
9940
10009
10067
10088
10066
10021
9988
9990
10028
10080
10117
10126
10114
10099
10095
10107
10126
10142
10144
10132
10109
10083
10060
10042
10031
10033
10057
10105
10165
10211
10215
10174
10112
10068
10067
10101
10139
10155
10142
10117
10096
10083
10074
10069
10080
10112
10151
10175
10172
10153
10145
10162
10189
10197
10177
10146
10135
10150
10174
10181
10169
10159
10172
10201
10222
10216
10186
10157
10146
10154
10167
10178
10186
10193
10202
10213
10229
10248
10262
10258
10236
10213
10212
10240
10281
10316
10342
10367
10398
10419
10411
10373
10332
10318
10338
10369
10388
10389
10388
10396
10404
10401
10388
10388
10412
10452
10479
10480
10460
10438
10424
10412
10401
10397
10412
10438
10454
10449
10430
10420
10426
10433
10417
10377
10332
10303
10295
10295
10295
10300
10314
10320
10295
10230
10151
10098
10096
10129
10161
10161
10131
10093
10072
10077
10097
10116
10119
10103
10079
10064
10067
10082
10091
10086
10073
10069
10080
10097
10108
10111
10114
10121
10123
10105
10069
10035
10025
10045
10080
10108
10121
10124
10125
10125
10124
10122
10124
10128
10128
10122
10114
10113
10122
10129
10122
10100
10076
10064
10068
10081
10094
10105
10114
10119
10115
10102
10084
10070
10063
10060
10054
10043
10032
10027
10035
10056
10086
10113
10129
10129
10115
10094
10069
10046
10036
10049
10087
10131
10157
10153
10131
10111
10105
10102
10088
10063
10044
10042
10052
10061
10065
10076
10104
10137
10148
10125
10083
10049
10035
10024
10003
9982
9985
10016
10047
10042
10001
9962
9964
10004
10049
10069
10069
10070
10072
10055
10006
9955
9948
10006
10094
10150
10146
10106
10074
10068
10069
10055
10030
10019
10035
10064
10078
10066
10036
10007
9989
9982
9985
9995
10009
10019
10022
10026
10042
10066
10080
10063
10018
9969
9946
9959
9999
10048
10088
10104
10090
10051
10008
9985
9986
9995
9990
9971
9959
9977
10024
10074
10102
10099
10074
10037
9997
9967
9963
9991
10038
10071
10071
10048
10036
10054
10088
10109
10098
10065
10034
10016
10009
10006
10005
10013
10029
10048
10064
10076
10087
10088
10074
10046
10024
10028
10059
10096
10112
10101
10077
10058
10055
10061
10068
10073
10077
10080
10082
10081
10075
10062
10042
10019
10003
10000
10010
10024
10031
10026
10014
10004
10000
10003
10014
10030
10042
10042
10029
10013
10003
9997
9983
9956
9930
9925
9945
9972
9983
9981
9989
10019
10052
10055
10018
9974
9967
10006
10049
10048
10001
9952
9954
10018
10111
10204
10295
10404
10529
10642
10714
10749
10790
10871
10981
11067
11077
10990
10824
10614
10386
10163
9972
9838
9774
9771
9798
9827
9842
9847
9854
9874
9910
9955
9996
10017
10012
9987
9964
9962
9985
10018
10036
10025
9993
9964
9959
9979
10007
10026
10034
10041
10048
10044
10016
9972
9942
9956
10012
10073
10095
10071
10029
10009
10026
10058
10078
10072
10053
10038
10033
10035
10040
10049
10062
10074
10075
10061
10040
10026
10027
10043
10069
10097
10118
10124
10114
10098
10090
10094
10100
10091
10066
10044
10046
10080
10124
10152
10150
10130
10111
10106
10111
10115
10110
10101
10098
10107
10130
10160
10187
10205
10213
10214
10213
10208
10200
10192
10194
10215
10251
10289
10312
10315
10307
10298
10294
10291
10289
10295
10318
10356
10394
10408
10391
10356
10329
10327
10347
10370
10380
10375
10366
10362
10366
10368
10358
10334
10304
10280
10269
10272
10281
10284
10272
10240
10198
10160
10140
10140
10148
10152
10145
10128
10111
10097
10086
10077
10072
10070
10064
10047
10018
9993
9983
9993
10011
10025
10029
10027
10021
10010
9995
9988
10002
10033
10059
10054
10015
9970
9954
9975
10008
10021
10008
9993
10003
10041
10085
10104
10088
10045
9995
9961
9955
9977
10012
10034
10029
10004
9985
9995
10030
10067
10080
10064
10031
10000
9983
9986
10004
10027
10034
10014
9978
9955
9973
10024
10071
10081
10053
10021
10011
10018
10016
9990
9959
9956
9991
10042
10072
10062
10027
9996
9989
10006
10034
10053
10052
10027
9986
9949
9933
9944
9974
10005
10026
10033
10030
10023
10020
10023
10026
10019
9993
9960
9945
9962
9998
10019
10003
9962
9932
9942
9985
10031
10055
10052
10033
10008
9983
9967
9971
9993
10015
10018
10002
9984
9980
9981
9964
9929
9905
9922
9975
10020
10020
9980
9946
9951
9980
9987
9947
9883
9845
9857
9902
9943
9960
9960
9959
9968
9985
10010
10036
10049
10039
10008
9978
9973
9996
10023
10028
10011
9989
9977
9970
9954
9934
9927
9949
9990
10022
10025
10005
9978
9958
9949
9952
9975
10016
10059
10077
10060
10023
9991
9973
9959
9939
9919
9915
9930
9949
9961
9969
9988
10021
10045
10035
9995
9958
9958
9996
10038
10048
10024
9992
9981
10001
10032
10052
10051
10036
10028
10044
10080
10116
10121
10079
10006
9941
9915
9924
9939
9931
9900
9872
9872
9907
9957
9994
9998
9973
9937
9918
9929
9964
9998
10011
10007
10006
10021
10038
10032
9993
9943
9913
9912
9920
9916
9903
9903
9926
9954
9963
9949
9937
9942
9954
9945
9913
9891
9914
9988
10080
10162
10236
10321
10421
10513
10580
10639
10728
10857
10981
11030
10969
10823
10645
10470
10297
10125
9974
9874
9830
9812
9785
9746
9724
9742
9790
9836
9857
9865
9883
9920
9961
9988
9995
9994
9995
9995
9985
9960
9927
9898
9885
9893
9922
9958
9985
9988
9970
9948
9940
9954
9982
10009
10025
10024
10007
9980
9954
9944
9953
9972
9989
9996
9995
9991
9982
9968
9959
9973
10019
10078
10115
10101
10043
9974
9931
9927
9953
9991
10025
10046
10046
10028
10007
10003
10022
10050
10068
10066
10053
10043
10042
10041
10037
10037
10051
10077
10099
10104
10091
10075
10074
10090
10113
10132
10139
10137
10131
10130
10142
10162
10183
10194
10194
10193
10202
10221
10241
10250
10244
10231
10220
10218
10232
10264
10308
10344
10353
10335
10313
10312
10335
10358
10353
10323
10291
10279
10283
10276
10246
10206
10185
10193
10219
10243
10256
10263
10271
10275
10265
10241
10209
10172
10130
10088
10060
10058
10078
10095
10089
10063
10042
10042
10053
10051
10025
9995
9983
9992
10003
10005
10003
10014
10033
10036
10002
9942
9895
9891
9923
9957
9969
9964
9964
9979
9997
10001
9987
9966
9951
9942
9935
9930
9934
9953
9980
10003
10011
10002
9981
9952
9921
9904
9913
9948
9993
10027
10037
10030
10020
10011
10000
9981
9958
9944
9946
9962
9978
9985
9982
9976
9975
9980
9990
10000
10008
10009
10004
9995
9987
9984
9985
9982
9972
9959
9954
9963
9984
10001
10006
9999
9988
9981
9974
9960
9939
9924
9930
9957
9987
9999
9987
9962
9943
9940
9950
9963
9967
9959
9940
9919
9912
9928
9962
9991
9994
9969
9940
9930
9939
9948
9940
9922
9915
9931
9955
9963
9949
9931
9931
9948
9964
9963
9953
9951
9964
9977
9974
9953
9933
9931
9946
9964
9971
9965
9947
9929
9923
9942
9983
10022
10025
9976
9903
9854
9858
9902
9944
9960
9955
9949
9951
9947
9932
9920
9932
9963
9982
9964
9916
9878
9879
9912
9945
9959
9956
9952
9944
9922
9888
9867
9884
9931
9974
9983
9964
9952
9968
9996
10005
9981
9944
9925
9931
9945
9953
9955
9965
9984
9993
9978
9948
9929
9942
9979
10011
10015
9997
9980
9983
10003
10023
10025
10012
9996
9988
9989
9991
9988
9984
9989
10006
10025
10033
10019
9992
9970
9964
9971
9975
9968
9955
9949
9957
9968
9968
9949
9917
9890
9879
9884
9892
9894
9889
9888
9909
9951
9994
10005
9968
9900
9843
9832
9864
9905
9920
9902
9875
9863
9873
9893
9914
9932
9950
9962
9959
9945
9943
9977
10053
10149
10234
10295
10343
10403
10494
10615
10747
10861
10932
10947
10904
10815
10691
10540
10372
10203
10054
9932
9831
9737
9655
9612
9638
9726
9830
9895
9898
9867
9843
9850
9875
9897
9907
9915
9928
9940
9943
9937
9934
9946
9969
9989
9999
9999
9996
9991
9977
9957
9942
9946
9971
10001
10016
10006
9979
9955
9948
9964
9991
10013
10016
9999
9975
9960
9962
9976
9988
9990
9982
9967
9950
9937
9939
9963
10003
10035
10038
10014
9991
9999
10042
10090
10109
10087
10044
10013
10009
10025
10045
10057
10060
10059
10062
10071
10082
10087
10076
10054
10036
10042
10076
10122
10153
10158
10145
10131
10125
10125
10127
10137
10161
10195
10228
10249
10258
10264
10269
10269
10256
10240
10230
10233
10240
10245
10254
10281
10328
10368
10368
10318
10250
10214
10239
10312
10392
10437
10435
10398
10352
10314
10292
10283
10272
10251
10226
10209
10210
10219
10215
10191
10157
10140
10148
10164
10162
10133
10093
10066
10059
10061
10057
10049
10044
10045
10044
10034
10026
10034
10059
10081
10074
10035
9989
9965
9972
9993
10007
10010
10009
10011
10007
9984
9943
9904
9888
9899
9921
9935
9936
9933
9935
9944
9954
9961
9967
9978
9988
9990
9980
9967
9966
9986
10015
10031
10022
9998
9980
9985
10006
10025
10030
10026
10025
10032
10035
10022
9998
9980
9984
10005
10021
10013
9981
9941
9914
9909
9928
9964
10008
10045
10058
10040
10000
9964
9950
9962
9987
10008
10016
10013
9999
9978
9955
9939
9940
9952
9964
9966
9961
9964
9981
10005
10017
10007
9981
9960
9957
9967
9977
9973
9954
9932
9921
9928
9947
9969
9985
9995
10000
10005
10006
10001
9991
9984
9988
9997
9998
9977
9938
9904
9896
9921
9962
9995
10006
9998
9980
9963
9952
9947
9949
9955
9960
9958
9950
9940
9935
9934
9941
9959
9989
10021
10037
10021
9981
9941
9924
9931
9938
9926
9902
9894
9920
9970
10011
10020
10002
9979
9971
9974
9972
9957
9937
9924
9924
9930
9936
9941
9948
9960
9976
9994
10012
10023
10018
9990
9947
9909
9893
9900
9917
9929
9934
9942
9958
9974
9976
9963
9949
9951
9970
9991
9997
9982
9956
9933
9926
9941
9974
10014
10044
10053
10040
10023
10022
10045
10080
10102
10093
10054
10005
9971
9965
9984
10009
10015
9992
9952
9924
9929
9964
10001
10010
9986
9951
9928
9926
9933
9939
9944
9957
9974
9977
9952
9906
9869
9867
9903
9953
9986
9990
9974
9954
9937
9923
9909
9900
9902
9918
9944
9967
9979
9977
9967
9958
9955
9961
9975
10001
10039
10092
10155
10221
10291
10373
10477
10601
10728
10841
10926
10979
10996
10963
10865
10707
10512
10315
10138
9987
9863
9772
9723
9715
9727
9740
9749
9766
9798
9836
9865
9879
9894
9923
9960
9982
9976
9958
9958
9989
10029
10044
10023
9984
9955
9949
9960
9975
9991
10006
10011
9988
9937
9879
9849
9861
9901
9937
9953
9962
9981
10017
10052
10065
10052
10029
10015
10016
10020
10010
9984
9960
9957
9984
10025
10053
10055
10039
10028
10032
10039
10030
10004
9982
9986
10013
10035
10028
10002
9988
10011
10057
10093
10097
10077
10060
10064
10081
10098
10106
10111
10115
10119
10123
10136
10165
10199
10214
10193
10151
10119
10123
10158
10197
10219
10225
10222
10216
10205
10195
10196
10219
10253
10279
10287
10291
10307
10333
10350
10344
10325
10319
10335
10359
10368
10360
10354
10365
10383
10383
10355
10320
10308
10320
10330
10307
10253
10198
10171
10174
10187
10189
10179
10165
10154
10145
10140
10144
10161
10183
10196
10188
10161
10126
10090
10059
10038
10032
10041
10056
10060
10039
9999
9956
9929
9928
9951
9987
10019
10030
10013
9977
9945
9934
9946
9964
9974
9974
9974
9980
9995
10011
10026
10042
10055
10061
10053
10035
10014
10002
10000
10007
10022
10041
10054
10051
10028
9996
9977
9985
10017
10054
10083
10096
10094
10072
10032
9985
9949
9939
9953
9976
9995
10011
10030
10048
10051
10035
10015
10013
10033
10053
10050
10025
10003
10007
10027
10036
10013
9973
9948
9959
9995
10032
10054
10065
10071
10068
10047
10009
9977
9978
10016
10066
10095
10080
10027
9962
9914
9903
9928
9969
10002
10012
10005
9998
9999
10001
9990
9967
9950
9958
9990
10021
10028
10008
9979
9958
9950
9950
9958
9982
10019
10049
10046
10003
9947
9918
9935
9981
10025
10047
10049
10047
10046
10039
10022
10001
9986
9978
9967
9946
9919
9904
9919
9964
10023
10072
10092
10080
10046
10011
9991
9989
9994
9993
9983
9975
9979
9995
10005
9998
9980
9974
9996
10034
10060
10052
10018
9986
9983
10006
10035
10045
10033
10010
9990
9978
9974
9979
9993
10012
10028
10029
10014
9995
9989
10006
10038
10066
10071
10047
10005
9969
9956
9970
9997
10016
10017
10008
10010
10035
10074
10105
10105
10073
10028
9999
10004
10039
10083
10113
10120
10111
10102
10100
10104
10103
10093
10082
10080
10087
10092
10085
10067
10054
10055
10065
10067
10050
10024
10012
10021
10036
10036
10016
9996
9998
10024
10047
10045
10018
9990
9985
10002
10022
10032
10035
10041
10049
10046
10025
9996
9979
9987
10009
10028
10034
10034
10034
10034
10028
10017
10014
10029
10053
10065
10053
10034
10045
10113
10231
10367
10491
10596
10692
10788
10881
10962
11027
11077
11101
11071
10960
10768
10531
10303
10122
9991
9895
9820
9772
9761
9784
9824
9859
9886
9920
9972
10036
10085
10100
10079
10046
10027
10030
10049
10070
10089
10104
10116
10119
10110
10095
10086
10088
10094
10091
10073
10052
10046
10057
10070
10068
10048
10033
10042
10073
10097
10091
10060
10035
10046
10089
10131
10139
10118
10097
10104
10137
10165
10165
10137
10104
10086
10087
10101
10119
10139
10156
10160
10146
10122
10109
10121
10154
10187
10205
10208
10211
10219
10226
10225
10218
10215
10224
10239
10249
10249
10248
10257
10273
10281
10269
10240
10213
10205
10224
10259
10297
10324
10334
10334
10337
10353
10380
10402
10401
10376
10347
10340
10365
10404
10433
10439
10435
10439
10459
10486
10505
10511
10507
10497
10481
10460
10438
10427
10436
10463
10498
10525
10527
10498
10447
10398
10375
10381
10399
10401
10381
10355
10345
10353
10362
10353
10332
10320
10327
10338
10327
10284
10227
10182
10157
10141
10123
10107
10107
10126
10146
10151
10148
10157
10191
10233
10254
10237
10198
10162
10146
10142
10138
10133
10132
10138
10142
10138
10128
10122
10129
10144
10158
10165
10165
10165
10164
10165
10169
10179
10191
10193
10177
10146
10115
10100
10109
10140
10188
10238
10266
10256
10210
10161
10148
10183
10235
10259
10238
10196
10172
10178
10190
10182
10155
10138
10149
10176
10192
10187
10175
10179
10197
10210
10203
10186
10180
10192
10206
10205
10191
10183
10188
10193
10179
10147
10125
10137
10181
10226
10245
10236
10217
10203
10194
10181
10165
10154
10154
10159
10159
10155
10159
10174
10193
10200
10193
10181
10177
10180
10178
10168
10159
10167
10188
10206
10201
10177
10152
10145
10155
10167
10173
10176
10184
10194
10198
10195
10196
10211
10232
10232
10198
10143
10107
10119
10170
10221
10234
10207
10167
10148
10157
10179
10194
10195
10185
10172
10165
10169
10189
10218
10241
10240
10212
10175
10152
10154
10169
10180
10180
10180
10191
10211
10224
10218
10196
10174
10165
10165
10163
10152
10141
10141
10161
10196
10237
10274
10299
10304
10282
10237
10187
10157
10160
10188
10217
10224
10203
10168
10143
10145
10178
10231
10284
10316
10313
10274
10220
10180
10178
10213
10264
10298
10302
10283
10263
10250
10233
10198
10150
10120
10141
10215
10304
10360
10358
10317
10276
10258
10260
10260
10244
10218
10193
10179
10178
10189
10211
10237
10250
10236
10201
10170
10165
10185
10205
10203
10177
10147
10137
10150
10173
10191
10204
10215
10226
10233
10234
10229
10216
10193
10161
10136
10138
10173
10217
10232
10201
10153
10139
10190
10286
10376
10430
10461
10511
10606
10735
10868
10982
11077
11157
11213
11221
11169
11067
10945
10820
10692
10548
10385
10219
10075
9977
9933
9938
9974
10024
10072
10111
10144
10174
10201
10223
10237
10242
10236
10215
10178
10133
10099
10098
10136
10199
10260
10294
10292
10260
10214
10174
10162
10190
10249
10312
10344
10331
10290
10249
10230
10231
10233
10227
10217
10216
10228
10244
10251
10243
10231
10230
10251
10287
10321
10335
10325
10305
10297
10315
10350
10378
10375
10339
10291
10257
10248
10259
10279
10298
10313
10320
10314
10299
10289
10303
10342
10383
10400
10382
10345
10321
10324
10349
10376
10391
10397
10400
10404
10405
10401
10394
10395
10412
10446
10489
10522
10529
10505
10466
10443
10458
10508
10563
10591
10584
10560
10545
10549
10567
10590
10617
10649
10675
10678
10651
10613
10593
10605
10636
10654
10640
10598
10551
10518
10505
10509
10529
10559
10585
10589
10559
10502
10440
10396
10382
10395
10424
10456
10474
10468
10436
10394
10361
10347
10348
10350
10347
10341
10334
10323
10304
10279
10261
10262
10275
10285
10278
10259
10239
10230
10230
10235
10248
10271
10298
10310
10290
10244
10195
10174
10191
10235
10282
10315
10324
10312
10287
10261
10249
10257
10274
10280
10264
10235
10216
10223
10254
10292
10318
10320
10300
10262
10219
10188
10187
10218
10268
10311
10330
10324
10310
10299
10292
10279
10258
10237
10229
10240
10260
10272
10269
10256
10252
10266
10291
10307
10298
10266
10237
10236
10266
10304
10320
10303
10269
10244
10240
10249
10253
10246
10238
10243
10261
10277
10274
10249
10219
10203
10213
10240
10264
10270
10252
10222
10199
10196
10212
10234
10248
10249
10241
10235
10238
10250
10264
10278
10288
10291
10281
10259
10229
10203
10193
10203
10225
10245
10251
10239
10220
10209
10214
10230
10248
10256
10249
10229
10202
10178
10170
10188
10230
10277
10305
10302
10275
10242
10216
10197
10184
10179
10186
10201
10208
10192
10166
10160
10196
10258
10305
10305
10267
10228
10219
10233
10247
10247
10245
10258
10285
10300
10286
10250
10217
10200
10191
10183
10179
10194
10229
10263
10273
10256
10233
10220
10213
10197
10172
10161
10189
10248
10306
10333
10332
10325
10325
10317
10286
10234
10193
10187
10211
10241
10257
10263
10271
10281
10278
10256
10232
10234
10267
10308
10324
10304
10264
10233
10221
10220
10214
10204
10200
10209
10226
10235
10226
10205
10190
10200
10235
10274
10289
10260
10199
10142
10123
10149
10191
10215
10208
10186
10174
10186
10211
10236
10254
10264
10261
10240
10202
10162
10140
10146
10166
10185
10194
10197
10202
10211
10223
10247
10293
10364
10449
10530
10607
10692
10800
10925
11040
11123
11168
11185
11176
11124
11010
10833
10621
10411
10231
10090
9986
9919
9890
9896
9928
9977
10039
10108
10167
10198
10195
10172
10156
10166
10192
10212
10208
10187
10168
10169
10185
10197
10189
10167
10150
10157
10186
10218
10235
10232
10223
10224
10237
10251
10250
10232
10209
10194
10188
10184
10174
10166
10169
10183
10194
10192
10180
10178
10198
10233
10259
10260
10241
10223
10222
10237
10257
10271
10277
10274
10259
10233
10205
10191
10203
10231
10257
10267
10262
10256
10258
10266
10273
10281
10293
10306
10311
10300
10277
10258
10258
10276
10305
10334
10362
10388
10405
10407
10392
10371
10355
10348
10349
10356
10376
10409
10445
10461
10446
10416
10401
10422
10467
10511
10531
10529
10515
10501
10487
10477
10477
10491
10508
10513
10508
10508
10530
10563
10577
10554
10511
10487
10504
10540
10549
10511
10451
10411
10412
10433
10441
10426
10401
10378
10352
10311
10264
10237
10248
10283
10308
10298
10266
10239
10233
10238
10239
10235
10233
10237
10240
10239
10243
10262
10285
10277
10215
10122
10054
10054
10112
10173
10190
10167
10141
10140
10156
10163
10153
10144
10149
10161
10158
10134
10112
10119
10161
10212
10246
10255
10248
10233
10207
10169
10138
10138
10172
10211
10219
10188
10145
10124
10136
10158
10167
10164
10167
10187
10211
10217
10199
10174
10162
10166
10176
10183
10190
10201
10208
10194
10157
10120
10118
10164
10234
10284
10283
10242
10192
10164
10166
10184
10202
10207
10196
10172
10138
10104
10078
10064
10063
10077
10106
10148
10188
10206
10195
10170
10153
10157
10170
10170
10154
10139
10144
10167
10187
10182
10154
10124
10106
10098
10094
10100
10126
10172
10212
10212
10169
10113
10085
10098
10132
10159
10168
10170
10166
10146
10105
10061
10051
10088
10146
10175
10156
10115
10095
10107
10126
10120
10093
10075
10086
10112
10122
10109
10096
10110
10147
10174
10169
10140
10118
10120
10139
10153
10153
10146
10140
10131
10113
10092
10082
10095
10126
10160
10184
10190
10173
10138
10100
10085
10110
10161
10195
10176
10107
10032
9992
9996
10021
10043
10059
10079
10102
10115
10115
10118
10142
10184
10213
10202
10160
10124
10121
10143
10159
10155
10143
10149
10176
10203
10209
10197
10181
10174
10178
10189
10216
10258
10297
10301
10252
10172
10108
10086
10095
10099
10080
10055
10052
10078
10108
10112
10083
10046
10028
10036
10059
10077
10086
10091
10100
10117
10134
10139
10127
10101
10077
10073
10090
10114
10126
10119
10103
10095
10098
10106
10111
10115
10123
10130
10123
10097
10059
10030
10021
10029
10047
10078
10137
10229
10342
10448
10532
10598
10663
10735
10814
10894
10973
11045
11089
11075
10986
10837
10661
10485
10317
10149
9988
9857
9786
9782
9825
9880
9923
9948
9963
9974
9988
10006
10028
10048
10063
10070
10076
10092
10123
10160
10185
10178
10135
10072
10024
10018
10058
10117
10156
10156
10129
10105
10100
10109
10111
10101
10094
10111
10152
10194
10215
10209
10187
10163
10142
10127
10122
10134
10159
10176
10166
10128
10084
10062
10073
10106
10141
10162
10163
10143
10114
10093
10102
10146
10206
10246
10241
10199
10153
10136
10153
10187
10215
10227
10227
10224
10227
10238
10254
10270
10279
10278
10271
10263
10256
10246
10229
10216
10220
10252
10303
10350
10372
10366
10347
10334
10338
10358
10381
10394
10395
10388
10386
10401
10430
10461
10475
10464
10440
10422
10427
10459
10501
10531
10530
10501
10464
10444
10456
10492
10524
10532
10516
10496
10482
10469
10437
10384
10330
10304
10317
10351
10373
10367
10336
10297
10260
10228
10203
10190
10191
10199
10206
10214
10226
10238
10237
10215
10179
10156
10159
10173
10164
10119
10063
10040
10074
10143
10204
10225
10203
10153
10089
10022
9973
9968
10014
10087
10144
10160
10142
10121
10116
10125
10132
10134
10141
10151
10153
10132
10094
10065
10064
10089
10118
10140
10159
10186
10214
10224
10201
10153
10108
10089
10094
10106
10112
10114
10119
10130
10141
10146
10145
10144
10145
10146
10144
10142
10143
10148
10149
10143
10129
10114
10105
10105
10110
10112
10108
10102
10107
10127
10155
10170
10156
10118
10083
10079
10104
10136
10147
10135
10122
10127
10147
10161
10151
10122
10092
10080
10084
10095
10101
10099
10087
10067
10047
10039
10048
10069
10085
10084
10072
10068
10082
10102
10109
10093
10066
10052
10064
10098
10138
10168
10179
10167
10132
10087
10051
10041
10054
10071
10073
10056
10036
10030
10046
10073
10099
10111
10109
10095
10074
10057
10051
10058
10075
10092
10102
10100
10088
10071
10061
10068
10095
10124
10129
10096
10037
9988
9976
10003
10045
10074
10084
10081
10078
10075
10066
10054
10047
10052
10063
10069
10068
10068
10077
10097
10116
10121
10113
10098
10082
10064
10045
10030
10029
10046
10076
10106
10129
10143
10150
10148
10135
10118
10106
10107
10120
10131
10131
10123
10118
10123
10135
10138
10126
10104
10087
10089
10103
10115
10110
10088
10063
10054
10066
10090
10105
10097
10067
10032
10014
10022
10050
10080
10093
10085
10064
10047
10046
10054
10055
10038
10004
9970
9953
9963
9994
10032
10066
10091
10110
10121
10123
10113
10094
10068
10041
10020
10010
10010
10018
10028
10036
10043
10054
10074
10103
10139
10181
10231
10289
10356
10434
10529
10649
10786
10919
11019
11068
11072
11047
11000
10917
10779
10584
10359
10144
9969
9848
9777
9756
9779
9833
9890
9928
9944
9961
9998
10050
10089
10091
10058
10019
10003
10017
10043
10069
10092
10119
10145
10152
10126
10080
10045
10045
10077
10109
10114
10088
10053
10029
10022
10024
10034
10053
10081
10106
10107
10080
10040
10015
10018
10038
10058
10067
10070
10075
10083
10085
10083
10085
10099
10120
10134
10130
10116
10109
10121
10142
10156
10156
10149
10148
10157
10166
10167
10158
10148
10144
10148
10161
10183
10212
10234
10235
10208
10167
10140
10146
10180
10216
10232
10228
10220
10225
10245
10269
10284
10287
10278
10262
10243
10227
10224
10241
10276
10318
10350
10363
10364
10365
10377
10398
10418
10425
10417
10403
10393
10394
10401
10408
10410
10408
10405
10405
10410
10422
10436
10443
10431
10398
10356
10327
10323
10341
10356
10349
10322
10289
10271
10270
10274
10268
10246
10217
10191
10176
10169
10165
10158
10152
10149
10154
10161
10160
10141
10103
10059
10025
10010
10010
10016
10025
10041
10067
10097
10112
10105
10081
10060
10050
10046
10040
10031
10033
10055
10088
10110
10106
10082
10062
10063
10081
10096
10092
10070
10044
10026
10025
10041
10071
10106
10128
10121
10085
10039
10015
10028
10070
10110
10122
10103
10070
10044
10034
10035
10040
10050
10066
10085
10094
10084
10062
10048
10057
10089
10122
10133
10116
10083
10052
10029
10014
10007
10011
10026
10042
10043
10027
10009
10013
10047
10093
10123
10120
10095
10067
10047
10027
10003
9985
9993
10034
10089
10126
10123
10090
10055
10044
10059
10084
10093
10073
10030
9985
9964
9978
10016
10049
10053
10029
10002
9997
10016
10040
10051
10055
10067
10093
10109
10090
10030
9961
9924
9933
9970
10004
10023
10036
10056
10082
10098
10095
10079
10067
10064
10066
10068
10071
10084
10106
10125
10121
10091
10048
10014
10000
10005
10019
10030
10030
10019
10002
9990
9994
10013
10035
10042
10030
10009
9997
10001
10017
10034
10048
10062
10075
10080
10067
10041
10017
10014
10034
10064
10085
10090
10085
10084
10088
10089
10078
10054
10025
10007
10012
10045
10099
10154
10184
10174
10130
10074
10036
10031
10051
10078
10092
10085
10064
10039
10024
10026
10044
10063
10065
10041
10001
9967
9956
9967
9982
9986
9980
9976
9985
10002
10015
10019
10021
10031
10051
10069
10072
10056
10031
10012
10005
10005
10003
9999
10000
10009
10019
10015
9987
9943
9908
9910
9956
10031
10110
10177
10236
10302
10386
10480
10571
10647
10712
10773
10830
10868
10874
10839
10770
10676
10561
10425
10272
10116
9978
9876
9818
9799
9808
9832
9861
9890
9916
9938
9951
9955
9953
9955
9968
9993
10019
10035
10039
10041
10051
10067
10076
10064
10035
10007
9998
10012
10037
10057
10062
10051
10032
10014
10004
10007
10019
10028
10028
10020
10019
10036
10066
10091
10092
10071
10047
10040
10051
10063
10062
10052
10050
10066
10091
10104
10093
10069
10053
10056
10072
10085
10089
10092
10104
10119
10120
10094
10049
10014
10013
10046
10088
10113
10115
10109
10113
10128
10140
10140
10139
10152
10179
10201
10193
10156
10121
10123
10173
10241
10289
10295
10274
10258
10265
10287
10301
10291
10263
10236
10229
10245
10273
10298
10314
10327
10349
10383
10415
10424
10400
10352
10306
10285
10292
10316
10343
10364
10377
10379
10368
10349
10334
10332
10337
10338
10326
10308
10297
10294
10288
10263
10221
10176
10144
10126
10116
10116
10134
10174
10212
10218
10178
10113
10061
10040
10038
10029
10009
9999
10014
10041
10048
10025
9994
9994
10038
10093
10117
10096
10052
10019
10004
9995
9982
9971
9979
10007
10035
10042
10027
10007
9996
9992
9987
9984
9993
10020
10051
10069
10069
10065
10073
10088
10089
10064
10024
9999
10007
10040
10072
10081
10065
10033
9999
9973
9965
9982
10018
10053
10063
10044
10014
9999
10014
10046
10071
10077
10065
10044
10018
9986
9957
9948
9974
10032
10097
10136
10132
10096
10053
10027
10022
10031
10039
10039
10034
10026
10016
10002
9984
9970
9970
9985
10008
10025
10033
10040
10054
10074
10085
10073
10039
10000
9972
9959
9954
9957
9974
10010
10052
10071
10049
9997
9952
9948
9982
10020
10026
9994
9951
9927
9933
9958
9986
10009
10029
10046
10056
10057
10052
10049
10054
10060
10053
10026
9988
9953
9938
9948
9972
9997
10009
10008
10004
10005
10011
10012
10002
9988
9985
10004
10041
10073
10079
10052
10006
9965
9945
9949
9966
9980
9980
9964
9944
9934
9944
9970
9998
10015
10025
10038
10063
10090
10102
10089
10061
10037
10034
10047
10060
10056
10031
10000
9981
9985
10012
10050
10080
10083
10055
10010
9972
9960
9976
10002
10019
10016
10000
9984
9981
9992
10008
10017
10011
9994
9970
9951
9941
9940
9946
9956
9965
9972
9974
9972
9967
9962
9959
9955
9949
9945
9946
9958
9976
9991
9992
9973
9942
9914
9909
9937
9987
10034
10052
10041
10035
10081
10201
10373
10544
10668
10739
10785
10830
10872
10891
10866
10799
10700
10568
10401
10210
10029
9902
9841
9824
9811
9782
9752
9749
9783
9838
9890
9929
9960
9987
10003
10003
9989
9973
9962
9954
9942
9936
9948
9983
10022
10034
10010
9970
9945
9946
9954
9949
9932
9925
9949
9996
10034
10040
10017
9990
9976
9974
9976
9987
10015
10060
10100
10107
10074
10024
9990
9985
9993
9991
9975
9964
9978
10017
10061
10089
10095
10087
10076
10064
10048
10028
10008
9996
9998
10015
10042
10069
10084
10079
10061
10045
10043
10055
10068
10077
10087
10107
10134
10143
10117
10065
10027
10040
10108
10189
10234
10227
10190
10168
10182
10225
10264
10275
10255
10224
10208
10220
10254
10288
10298
10279
10253
10245
10267
10302
10326
10329
10324
10329
10344
10350
10333
10298
10268
10263
10284
10313
10333
10332
10309
10270
10229
10206
10213
10245
10277
10281
10251
10202
10152
10110
10074
10046
10041
10067
10109
10137
10130
10100
10077
10080
10098
10105
10091
10066
10051
10048
10041
10018
9982
9955
9950
9965
9988
10010
10025
10030
10023
10004
9981
9963
9952
9943
9935
9936
9949
9967
9977
9976
9975
9991
10020
10039
10027
9992
9963
9963
9985
10001
9995
9978
9973
9988
10011
10020
10016
10013
10022
10035
10039
10030
10020
10024
10041
10054
10050
10031
10013
10008
10018
10031
10034
10017
9984
9947
9926
9930
9955
9982
10000
10011
10024
10040
10044
10023
9985
9961
9973
10009
10036
10026
9988
9957
9960
9995
10033
10054
10056
10051
10050
10049
10044
10031
10013
9989
9959
9929
9911
9913
9929
9948
9959
9963
9965
9969
9970
9968
9971
9983
10002
10014
10010
9995
9984
9990
10010
10029
10038
10035
10027
10022
10018
10010
9993
9965
9935
9915
9916
9934
9954
9963
9958
9951
9949
9948
9937
9918
9912
9934
9976
10000
9977
9920
9876
9885
9942
10006
10039
10038
10027
10023
10022
10008
9983
9963
9963
9980
10001
10013
10014
10007
9991
9971
9965
9995
10056
10115
10136
10113
10075
10060
10070
10080
10067
10038
10020
10025
10029
10004
9950
9901
9891
9924
9971
10000
10004
9997
9990
9983
9971
9955
9948
9956
9973
9988
9995
9996
9992
9983
9968
9948
9933
9925
9925
9928
9934
9943
9954
9962
9966
9969
9972
9973
9967
9955
9949
9958
9976
9984
9966
9929
9900
9901
9930
9969
10005
10045
10106
10199
10318
10448
10579
10703
10810
10891
10943
10968
10966
10925
10829
10676
10489
10301
10133
9988
9864
9771
9722
9719
9738
9748
9745
9753
9798
9874
9942
9966
9949
9926
9934
9972
10011
10022
10002
9973
9957
9960
9969
9971
9965
9958
9954
9955
9957
9963
9977
10002
10024
10028
10001
9959
9932
9944
9992
10042
10060
10043
10014
10003
10013
10021
10004
9972
9954
9968
10002
10024
10015
9985
9961
9962
9984
10012
10031
10036
10028
10015
10010
10028
10070
10114
10130
10109
10076
10064
10081
10105
10107
10087
10072
10080
10099
10101
10072
10035
10024
10050
10094
10132
10153
10163
10162
10142
10106
10083
10104
10166
10223
10226
10171
10111
10105
10160
10233
10273
10270
10252
10251
10267
10281
10284
10285
10300
10329
10357
10375
10388
10401
10406
10392
10357
10317
10290
10281
10279
10276
10277
10288
10301
10298
10275
10252
10255
10282
10300
10274
10212
10152
10129
10134
10130
10094
10045
10022
10040
10078
10097
10086
10064
10057
10066
10071
10052
10017
9987
9978
9990
10009
10021
10021
10008
9984
9958
9943
9943
9952
9955
9951
9951
9970
10005
10035
10038
10011
9977
9959
9964
9978
9987
9985
9976
9963
9951
9942
9942
9955
9979
10004
10024
10037
10044
10040
10018
9980
9942
9924
9931
9950
9964
9967
9969
9981
10000
10010
10000
9979
9969
9986
10021
10049
10049
10023
9992
9978
9990
10017
10041
10048
10036
10010
9979
9951
9933
9932
9947
9968
9983
9985
9978
9974
9980
9992
9997
9990
9978
9976
9988
10002
9999
9973
9937
9908
9896
9898
9908
9924
9947
9974
9996
10005
10000
9993
9989
9989
9990
9991
9998
10011
10018
10004
9967
9926
9905
9911
9933
9951
9955
9950
9947
9950
9956
9962
9968
9973
9974
9968
9957
9953
9961
9976
9985
9975
9952
9929
9922
9934
9956
9977
9986
9977
9958
9941
9942
9961
9987
10000
9990
9968
9954
9960
9980
10000
10008
10004
9995
9983
9966
9949
9944
9961
9996
10030
10042
10025
9995
9978
9990
10028
10066
10080
10058
10014
9976
9965
9980
9999
10000
9979
9951
9934
9928
9925
9920
9920
9937
9970
10000
10007
9986
9953
9930
9926
9939
9959
9975
9980
9964
9931
9896
9884
9901
9927
9933
9906
9869
9855
9876
9916
9947
9959
9960
9963
9964
9952
9924
9890
9867
9865
9889
9951
10065
10220
10378
10490
10545
10577
10637
10740
10854
10931
10957
10951
10928
10866
10722
10490
10223
10004
9873
9808
9760
9708
9679
9702
9769
9834
9857
9844
9834
9856
9903
9942
9953
9941
9927
9917
9908
9896
9890
9906
9946
9993
10020
10015
9984
9944
9915
9906
9916
9938
9960
9972
9975
9978
9984
9986
9977
9957
9941
9944
9967
9990
9993
9976
9956
9952
9963
9975
9978
9982
9998
10025
10037
10014
9961
9917
9918
9968
10035
10077
10075
10044
10015
10008
10024
10050
10070
10074
10058
10028
10000
9988
10001
10027
10047
10050
10043
10047
10077
10123
10163
10179
10168
10140
10109
10081
10064
10069
10104
10161
10212
10229
10206
10168
10152
10174
10221
10259
10268
10252
10232
10217
10205
10190
10176
10180
10213
10264
10308
10328
10325
10320
10328
10346
10357
10352
10338
10327
10324
10320
10303
10275
10252
10250
10266
10277
10262
10217
10165
10130
10127
10143
10156
10152
10128
10097
10073
10060
10055
10052
10047
10037
10023
10003
9980
9963
9960
9975
9997
10008
9997
9971
9949
9951
9976
10002
10006
9986
9958
9942
9944
9949
9945
9931
9925
9941
9975
10008
10018
10004
9975
9952
9942
9944
9954
9964
9972
9975
9974
9966
9955
9943
9932
9929
9935
9951
9971
9986
9991
9988
9980
9975
9974
9982
9996
10010
10015
10002
9978
9961
9971
10004
10039
10049
10027
9993
9975
9980
9992
9988
9962
9923
9890
9874
9878
9903
9946
9996
10030
10035
10014
9989
9979
9980
9973
9952
9930
9934
9966
9998
9997
9956
9905
9885
9908
9954
9988
9993
9981
9969
9967
9971
9974
9971
9963
9951
9936
9919
9907
9901
9900
9900
9904
9919
9945
9974
9990
9985
9961
9931
9904
9890
9895
9918
9949
9970
9968
9950
9939
9955
9991
10018
10008
9963
9911
9885
9898
9935
9972
9989
9983
9957
9919
9883
9865
9873
9905
9946
9983
10006
10010
9990
9953
9915
9900
9921
9963
9995
10001
9988
9986
10007
10038
10049
10031
9997
9973
9969
9975
9979
9979
9978
9970
9945
9900
9855
9840
9867
9921
9965
9979
9967
9944
9918
9889
9862
9850
9868
9910
9954
9981
9988
9983
9971
9947
9909
9873
9864
9887
9920
9928
9902
9865
9849
9866
9894
9907
9901
9894
9902
9920
9932
9936
9950
9999
10089
10204
10324
10435
10531
10615
10693
10775
10872
10970
11030
11001
10868
10663
10449
10266
10117
9980
9850
9749
9699
9692
9699
9698
9701
9737
9809
9885
9923
9914
9888
9879
9892
9905
9901
9890
9896
9926
9958
9967
9950
9930
9925
9933
9939
9938
9939
9957
9988
10014
10020
10008
9985
9959
9928
9899
9887
9900
9930
9953
9952
9939
9933
9944
9959
9965
9963
9969
9984
9987
9957
9904
9869
9884
9941
9997
10018
10015
10018
10040
10051
10023
9965
9931
9964
10047
10118
10123
10066
9999
9972
9986
10011
10019
10009
9995
9987
9985
9997
10034
10101
10179
10232
10236
10196
10141
10097
10076
10075
10094
10127
10162
10180
10173
10156
10155
10183
10228
10264
10278
10277
10275
10271
10259
10239
10229
10242
10270
10281
10259
10222
10208
10236
10279
10294
10265
10224
10218
10261
10316
10334
10299
10246
10224
10247
10285
10295
10256
10187
10120
10080
10066
10071
10081
10089
10087
10070
10044
10020
10009
10012
10022
10029
10028
10017
9998
9977
9965
9970
9990
10007
9999
9962
9913
9878
9870
9881
9897
9914
9941
9978
10007
9997
9943
9870
9826
9838
9894
9956
9991
9993
9976
9955
9937
9923
9916
9915
9921
9930
9939
9949
9960
9969
9974
9977
9981
9986
9982
9960
9931
9919
9944
9996
10042
10052
10028
9996
9976
9965
9949
9923
9904
9910
9933
9950
9945
9931
9931
9954
9983
9995
9987
9977
9973
9967
9946
9914
9896
9912
9948
9969
9953
9912
9886
9898
9943
9988
10010
10003
9979
9949
9924
9913
9921
9943
9964
9973
9968
9961
9957
9948
9925
9898
9889
9915
9967
10014
10030
10010
9974
9947
9942
9960
9987
10008
10006
9974
9924
9884
9875
9893
9917
9926
9920
9913
9915
9924
9936
9953
9981
10012
10025
10005
9966
9940
9949
9977
9990
9967
9924
9896
9903
9933
9962
9978
9989
10001
10009
10000
9977
9960
9964
9984
9999
9997
9989
9993
10015
10040
10048
10033
10004
9978
9959
9949
9943
9939
9933
9918
9902
9896
9913
9943
9962
9953
9922
9901
9909
9940
9963
9954
9914
9871
9852
9869
9913
9968
10013
10031
10014
9970
9922
9897
9901
9922
9936
9928
9907
9893
9896
9913
9927
9929
9921
9920
9943
9993
10061
10133
10205
10283
10378
10491
10607
10707
10783
10843
10893
10925
10914
10833
10682
10485
10281
10100
9958
9851
9768
9697
9636
9598
9605
9669
9774
9879
9942
9954
9942
9943
9972
10009
10022
9997
9946
9897
9872
9874
9898
9935
9973
9997
9994
9964
9919
9880
9867
9889
9939
9999
10040
10044
10011
9967
9945
9954
9979
9990
9978
9956
9943
9944
9944
9936
9928
9937
9965
9989
9986
9959
9940
9955
10002
10047
10061
10042
10013
10000
10003
10011
10015
10021
10036
10058
10071
10058
10022
9982
9966
9989
10045
10108
10144
10136
10092
10042
10016
10026
10059
10093
10112
10116
10113
10109
10106
10104
10106
10110
10115
10120
10135
10166
10210
10251
10270
10267
10257
10258
10268
10267
10244
10214
10209
10242
10294
10328
10328
10310
10301
10312
10326
10320
10295
10275
10281
10308
10329
10316
10269
10214
10183
10188
10220
10253
10264
10246
10209
10176
10162
10165
10166
10152
10125
10101
10090
10088
10083
10068
10055
10054
10059
10054
10025
9984
9957
9959
9982
10001
10004
9997
9992
9986
9964
9924
9889
9892
9943
10013
10056
10047
10003
9963
9953
9968
9988
9995
9990
9979
9965
9947
9928
9920
9932
9961
9990
10004
9999
9982
9961
9944
9939
9953
9990
10039
10073
10068
10023
9965
9932
9942
9986
10030
10049
10038
10015
9996
9986
9980
9975
9972
9975
9983
9987
9982
9969
9959
9961
9974
9987
9991
9984
9973
9963
9957
9952
9950
9955
9968
9986
9999
9999
9982
9954
9927
9911
9916
9938
9968
9992
10000
9993
9982
9977
9981
9991
9999
10002
9994
9974
9950
9937
9950
9987
10023
10028
9987
9922
9874
9870
9903
9942
9956
9940
9911
9886
9874
9879
9907
9957
10016
10054
10046
9998
9944
9921
9941
9981
10004
9991
9952
9910
9885
9882
9895
9918
9943
9965
9977
9980
9975
9969
9968
9971
9979
9990
10003
10012
10007
9985
9951
9919
9908
9925
9964
10008
10036
10037
10019
9998
9988
9991
9999
10002
10000
9995
9992
9987
9979
9970
9968
9973
9981
9980
9965
9942
9922
9914
9919
9930
9941
9947
9944
9935
9926
9925
9931
9939
9944
9950
9968
9997
10018
10009
9964
9912
9887
9897
9921
9927
9912
9898
9908
9938
9959
9954
9935
9927
9934
9939
9922
9896
9895
9940
10014
10082
10131
10180
10261
10377
10501
10607
10695
10784
10874
10941
10953
10904
10821
10728
10619
10471
10277
10067
9889
9769
9704
9674
9670
9700
9762
9838
9901
9940
9961
9971
9963
9931
9884
9852
9860
9902
9942
9953
9937
9923
9935
9964
9984
9974
9946
9926
9931
9957
9989
10011
10023
10025
10018
10004
9985
9967
9955
9951
9954
9961
9970
9976
9974
9963
9948
9935
9929
9929
9936
9950
9972
9997
10016
10026
10034
10047
10064
10073
10065
10046
10032
10033
10043
10044
10028
10009
10003
10015
10028
10028
10019
10019
10039
10062
10058
10019
9971
9961
10007
10085
10148
10169
10159
10149
10157
10170
10165
10135
10100
10087
10107
10145
10178
10190
10184
10175
10177
10195
10224
10255
10281
10299
10309
10313
10311
10299
10278
10254
10239
10242
10259
10275
10275
10254
10230
10225
10250
10294
10334
10348
10335
10311
10292
10280
10263
10230
10183
10136
10109
10106
10120
10139
10155
10159
10144
10105
10049
10002
9990
10018
10060
10081
10068
10036
10015
10017
10029
10028
10009
9983
9963
9952
9943
9935
9940
9967
10005
10031
10028
10004
9981
9975
9981
9988
9990
9994
10004
10010
9998
9968
9937
9924
9932
9944
9950
9957
9984
10036
10086
10098
10057
9985
9927
9915
9944
9984
10005
9999
9982
9974
9983
9998
10005
9997
9982
9976
9986
10009
10033
10047
10050
10044
10028
10001
9969
9944
9942
9963
9993
10015
10020
10012
10001
9990
9981
9981
10002
10042
10079
10084
10047
9988
9943
9934
9952
9975
9989
9996
10002
10003
9987
9956
9932
9934
9961
9987
9986
9956
9923
9912
9926
9953
9979
10002
10020
10028
10014
9981
9950
9947
9978
10023
10051
10043
10007
9962
9924
9903
9901
9922
9960
10001
10025
10019
9988
9952
9929
9927
9943
9966
9981
9980
9963
9943
9933
9940
9957
9966
9960
9946
9938
9945
9960
9971
9975
9978
9989
10000
9996
9968
9932
9912
9926
9969
10020
10057
10069
10059
10032
9993
9953
9925
9921
9943
9975
9998
9999
9982
9961
9951
9965
10000
10044
10077
10083
10064
10035
10016
10013
10015
10004
9977
9949
9939
9952
9973
9984
9979
9968
9967
9975
9984
9981
9966
9948
9935
9927
9921
9920
9926
9941
9958
9965
9955
9934
9917
9915
9930
9953
9969
9969
9954
9934
9919
9917
9922
9925
9920
9906
9894
9896
9921
9972
10039
10111
10174
10226
10276
10345
10445
10570
10698
10804
10877
10919
10933
10910
10837
10711
10545
10364
10191
10037
9912
9820
9765
9742
9739
9750
9776
9818
9868
9907
9920
9914
9909
9923
9947
9960
9946
9913
9886
9880
9894
9916
9939
9965
9991
10003
9989
9951
9911
9894
9907
9937
9964
9978
9979
9976
9973
9978
9998
10036
10082
10113
10108
10062
9997
9947
9935
9956
9988
10004
9998
9978
9963
9962
9970
9979
9985
9994
10010
10023
10021
9997
9967
9961
9994
10054
10106
10122
10100
10062
10029
10008
9997
9996
10015
10058
10106
10129
10110
10066
10035
10045
10089
10136
10154
10143
10125
10129
10160
10196
10211
10195
10162
10137
10132
10141
10148
10151
10165
10208
10275
10334
10351
10314
10252
10204
10196
10222
10258
10283
10292
10288
10275
10259
10248
10250
10261
10271
10269
10258
10251
10254
10264
10267
10262
10259
10268
10281
10282
10261
10228
10199
10184
10172
10156
10134
10115
10099
10075
10042
10016
10022
10064
10108
10111
10060
9987
9943
9950
9988
10019
10025
10017
10011
10010
10004
9987
9973
9977
9996
10013
10010
9989
9966
9955
9955
9956
9955
9956
9968
9985
9993
9980
9951
9927
9927
9957
10002
10034
10036
10011
9982
9976
10003
10046
10079
10083
10059
10024
9995
9976
9968
9973
9992
10017
10034
10027
9999
9970
9960
9973
9991
9998
9994
9994
10008
10032
10047
10040
10016
9989
9967
9950
9932
9916
9909
9919
9945
9976
10004
10025
10042
10050
10042
10019
9991
9974
9976
9984
9980
9958
9931
9919
9928
9945
9954
9950
9950
9966
9998
10027
10037
10023
9996
9966
9941
9929
9936
9960
9984
9987
9961
9924
9903
9908
9922
9926
9924
9935
9970
10006
10012
9982
9946
9945
9980
10015
10013
9979
9954
9964
9989
9990
9954
9915
9917
9964
10015
10022
9985
9938
9913
9909
9909
9910
9936
9996
10063
10086
10047
9977
9931
9933
9955
9956
9927
9902
9913
9957
9997
10003
9979
9956
9950
9953
9949
9935
9931
9954
9998
10038
10055
10047
10030
10018
10017
10022
10030
10039
10045
10044
10036
10022
10011
10008
10010
10008
9996
9973
9952
9943
9951
9965
9975
9971
9961
9955
9957
9962
9955
9932
9907
9899
9917
9948
9969
9964
9944
9933
9949
9989
10029
10044
10025
9983
9941
9917
9917
9932
9948
9956
9952
9940
9935
9945
9970
9990
9985
9944
9883
9834
9821
9849
9900
9955
10012
10080
10164
10260
10353
10445
10547
10665
10785
10879
10923
10921
10890
10840
10761
10635
10464
10272
10092
9943
9826
9744
9705
9716
9763
9813
9838
9837
9836
9856
9893
9924
9927
9909
9892
9892
9902
9908
9904
9902
9918
9949
9974
9979
9966
9954
9960
9982
9999
9995
9976
9961
9963
9974
9967
9929
9878
9853
9880
9948
10010
10029
10005
9978
9982
10021
10060
10063
10028
9978
9945
9939
9952
9973
9998
10025
10043
10039
10012
9979
9967
9990
10034
10073
10084
10067
10035
10006
9990
9989
10000
10018
10037
10055
10068
10072
10064
10043
10019
10011
10036
10091
10147
10168
10135
10067
10012
10011
10068
10147
10199
10203
10181
10174
10203
10252
10279
10259
10203
10152
10141
10171
10214
10239
10241
10234
10235
10253
10281
10308
10325
10322
10299
10264
10235
10229
10245
10269
10282
10280
10275
10277
10286
10289
10282
10269
10257
10245
10222
10186
10151
10133
10138
10149
10147
10124
10092
10069
10064
10074
10091
10109
10116
10103
10067
10024
9997
9995
10004
9999
9970
9933
9911
9913
9926
9933
9930
9926
9929
9938
9946
9956
9977
10007
10028
10026
10006
9991
9997
10017
10024
10004
9971
9955
9965
9982
9983
9966
9954
9971
10010
10044
10047
10023
9995
9977
9965
9944
9914
9892
9895
9920
9946
9958
9958
9964
9984
10009
10017
10001
9974
9960
9971
9996
10018
10025
10026
10028
10033
10031
10016
9998
9992
10004
10021
10019
9988
9941
9906
9902
9927
9961
9986
9998
10003
10008
10014
10013
10000
9976
9947
9926
9918
9920
9921
9912
9894
9881
9885
9905
9926
9938
9944
9957
9985
10014
10025
10009
9981
9961
9957
9960
9955
9943
9936
9936
9934
9920
9900
9895
9917
9953
9977
9976
9966
9972
9996
10014
10005
9975
9951
9951
9964
9962
9933
9899
9889
9910
9936
9939
9917
9896
9901
9932
9958
9958
9935
9914
9917
9940
9959
9954
9926
9897
9887
9902
9927
9940
9932
9915
9907
9921
9950
9977
9991
9996
10001
10009
10010
9992
9957
9919
9900
9906
9926
9941
9940
9925
9913
9919
9948
9989
10023
10029
10006
9971
9950
9961
9995
10027
10036
10017
9987
9965
9961
9971
9985
9995
10000
9998
9987
9966
9939
9913
9898
9896
9904
9912
9910
9899
9889
9894
9916
9945
9960
9954
9935
9923
9926
9937
9943
9939
9937
9947
9963
9965
9944
9912
9895
9910
9947
9982
9993
9974
9935
9890
9851
9832
9839
9866
9893
9899
9881
9858
9850
9865
9896
9937
9991
10062
10140
10202
10236
10263
10329
10460
10637
10803
10911
10952
10949
10919
10855
10736
10559
10351
10151
9982
9849
9750
9691
9678
9697
9725
9740
9747
9765
9805
9855
9892
9906
9908
9915
9929
9933
9916
9892
9884
9904
9935
9950
9936
9909
9897
9909
9932
9948
9951
9949
9950
9947
9929
9895
9865
9861
9890
9932
9958
9959
9945
9940
9953
9971
9970
9943
9905
9885
9897
9933
9970
9984
9975
9959
9953
9965
9990
10013
10022
10010
9979
9941
9914
9912
9939
9980
10014
10029
10029
10029
10040
10058
10073
10076
10067
10050
10028
10005
9990
9991
10013
10049
10084
10104
10109
10104
10098
10096
10106
10132
10170
10202
10204
10170
10120
10094
10116
10174
10228
10242
10211
10162
10127
10120
10139
10175
10218
10259
10284
10283
10258
10229
10219
10239
10278
10314
10332
10327
10303
10268
10234
10212
10210
10224
10236
10232
10208
10177
10155
10147
10149
10154
10159
10164
10163
10148
10117
10076
10039
10015
10001
9992
9984
9980
9980
9977
9967
9949
9938
9945
9967
9991
10002
9996
9981
9967
9958
9954
9955
9966
9981
9986
9969
9935
9905
9900
9919
9941
9941
9917
9893
9892
9919
9956
9984
9999
10009
10018
10023
10012
9986
9956
9940
9945
9960
9970
9966
9948
9926
9911
9910
9925
9953
9984
10003
10001
9977
9947
9931
9940
9972
10009
10027
10013
9974
9933
9914
9922
9942
9952
9942
9924
9915
9925
9945
9961
9964
9958
9950
9944
9941
9939
9940
9940
9933
9917
9902
9906
9932
9965
9978
9956
9918
9894
9903
9933
9959
9965
9956
9946
9937
9923
9898
9876
9870
9886
9906
9914
9910
9911
9927
9952
9964
9950
9918
9890
9879
9881
9884
9884
9891
9912
9940
9961
9961
9946
9930
9924
9921
9911
9886
9858
9844
9854
9885
9919
9944
9960
9973
9987
9999
9996
9973
9937
9903
9886
9889
9902
9910
9901
9879
9855
9847
9862
9893
9916
9913
9886
9853
9840
9854
9885
9915
9938
9957
9973
9977
9957
9916
9875
9859
9872
9901
9922
9927
9919
9907
9895
9889
9898
9926
9961
9977
9957
9913
9881
9886
9918
9939
9927
9894
9879
9897
9932
9947
9935
9918
9925
9953
9972
9955
9909
9873
9881
9931
9992
10032
10041
10029
10006
9980
9951
9921
9895
9876
9862
9855
9858
9875
9902
9929
9943
9942
9931
9920
9911
9904
9895
9882
9867
9853
9843
9839
9839
9846
9863
9886
9908
9916
9904
9877
9851
9839
9842
9851
9857
9864
9878
9901
9919
9915
9888
9854
9839
9857
9904
9967
10037
10114
10200
10293
10390
10493
10607
10730
10852
10951
11003
10990
10904
10753
10555
10341
10139
9973
9851
9770
9722
9695
9675
9656
9641
9645
9679
9742
9814
9874
9909
9919
9914
9897
9876
9860
9863
9881
9899
9896
9874
9852
9853
9876
9897
9894
9872
9858
9872
9907
9936
9939
9916
9887
9870
9870
9885
9909
9933
9945
9936
9913
9897
9906
9935
9963
9971
9963
9953
9948
9935
9903
9859
9835
9859
9920
9978
9996
9968
9927
9906
9918
9948
9975
9992
10001
10003
9995
9976
9952
9939
9945
9970
10002
10028
10039
10034
10014
9989
9973
9977
10002
10037
10067
10080
10077
10066
10054
10049
10053
10070
10099
10136
10166
10177
10171
10159
10158
10169
10179
10175
10157
10139
10138
10153
10174
10187
10194
10205
10222
10239
10244
10239
10234
10239
10251
10260
10258
10251
10249
10246
10232
10202
10171
10158
10169
10187
10189
10168
10138
10113
10092
10066
10035
10013
10015
10033
10041
10023
9990
9969
9974
9992
9999
9987
9967
9951
9933
9902
9859
9832
9845
9895
9948
9968
9950
9922
9909
9915
9918
9907
9890
9889
9910
9938
9952
9947
9936
9933
9937
9931
9900
9853
9817
9819
9863
9930
9988
10017
10015
9994
9968
9945
9927
9913
9905
9902
9901
9898
9895
9898
9910
9929
9941
9937
9918
9894
9879
9875
9880
9889
9901
9913
9919
9917
9907
9895
9887
9885
9885
9884
9885
9890
9901
9916
9933
9946
9951
9944
9930
9920
9925
9944
9959
9955
9934
9915
9917
9933
9938
9909
9854
9808
9800
9830
9872
9897
9896
9880
9862
9850
9845
9847
9861
9885
9914
9935
9939
9922
9888
9851
9831
9843
9884
9932
9956
9946
9918
9897
9897
9906
9906
9893
9873
9856
9843
9832
9829
9845
9879
9911
9915
9885
9845
9828
9849
9892
9925
9932
9916
9889
9859
9830
9806
9801
9822
9862
9904
9930
9932
9916
9891
9868
9856
9855
9859
9860
9856
9855
9866
9885
9895
9885
9861
9840
9839
9854
9868
9869
9864
9865
9876
9891
9904
9913
9923
9931
9926
9901
9870
9855
9870
9904
9931
9932
9908
9876
9857
9861
9885
9917
9939
9936
9908
9879
9874
9904
9948
9979
9984
9980
9986
10000
9997
9960
9898
9849
9838
9860
9886
9892
9881
9870
9873
9884
9892
9890
9880
9867
9852
9838
9835
9851
9883
9910
9914
9893
9866
9857
9865
9872
9858
9829
9814
9839
9902
9968
9995
9968
9909
9852
9824
9822
9835
9851
9869
9891
9907
9907
9885
9857
9840
9846
9868
9896
9929
9975
10042
10128
10225
10326
10430
10537
10641
10732
10805
10853
10863
10815
10695
10518
10322
10149
10016
9911
9814
9727
9663
9635
9639
9662
9703
9764
9842
9908
9932
9910
9863
9826
9811
9809
9810
9823
9859
9909
9940
9923
9868
9818
9815
9862
9920
9949
9937
9901
9870
9855
9855
9864
9878
9898
9918
9935
9942
9939
9927
9911
9899
9899
9909
9920
9920
9909
9902
9908
9923
9930
9919
9899
9892
9911
9947
9979
9991
9982
9959
9933
9914
9912
9933
9968
9997
10000
9981
9962
9963
9984
10007
10013
10003
9992
9993
10005
10020
10030
10028
10014
9987
9958
9945
9960
9997
10036
10057
10061
10059
10064
10074
10082
10087
10093
10103
10116
10127
10143
10169
10201
10223
10218
10191
10168
10168
10189
10209
10215
10210
10211
10222
10234
10233
10222
10212
10209
10206
10197
10188
10192
10213
10235
10238
10215
10182
10156
10139
10116
10076
10027
9988
9975
9986
10008
10031
10051
10065
10069
10059
10034
10000
9966
9942
9935
9946
9967
9977
9964
9930
9898
9889
9903
9923
9929
9916
9899
9889
9889
9892
9894
9895
9894
9891
9886
9887
9902
9933
9967
9990
9994
9980
9953
9919
9887
9871
9882
9910
9934
9938
9928
9923
9932
9938
9919
9879
9853
9873
9933
9987
9998
9965
9926
9909
9914
9918
9908
9895
9892
9898
9902
9897
9895
9907
9925
9934
9928
9919
9923
9939
9949
9943
9929
9923
9926
9919
9895
9866
9858
9879
9910
9932
9942
9956
9976
9984
9957
9906
9866
9868
9898
9919
9905
9869
9843
9844
9861
9874
9885
9905
9936
9955
9943
9907
9874
9867
9880
9892
9895
9899
9914
9926
9915
9882
9852
9855
9890
9925
9935
9921
9907
9905
9906
9893
9868
9853
9866
9898
9925
9932
9924
9913
9905
9892
9870
9848
9840
9853
9878
9897
9903
9900
9898
9904
9912
9908
9882
9839
9802
9797
9834
9889
9925
9920
9891
9875
9890
9923
9940
9930
9908
9901
9909
9911
9889
9856
9847
9879
9933
9971
9968
9929
9880
9845
9836
9855
9899
9948
9974
9960
9914
9873
9869
9903
9947
9969
9958
9925
9890
9861
9848
9856
9885
9917
9930
9916
9896
9904
9953
10015
10050
10035
9986
9939
9916
9914
9919
9921
9918
9907
9885
9857
9838
9843
9872
9906
9926
9925
9913
9897
9878
9858
9841
9839
9860
9895
9928
9947
9950
9940
9918
9891
9867
9859
9866
9872
9860
9827
9790
9768
9771
9792
9821
9853
9885
9904
9900
9880
9872
9902
9972
10053
10117
10165
10224
10314
10425
10521
10587
10638
10704
10788
10853
10850
10760
10606
10433
10266
10105
9947
9802
9693
9634
9616
9622
9639
9670
9717
9769
9810
9834
9849
9867
9890
9904
9900
9882
9870
9870
9873
9862
9833
9806
9808
9845
9894
9921
9911
9880
9859
9869
9907
9945
9961
9946
9917
9904
9924
9971
10017
10030
9999
9942
9892
9866
9860
9858
9854
9856
9872
9898
9919
9931
9942
9958
9971
9958
9916
9873
9869
9913
9970
9992
9968
9933
9937
9986
10040
10053
10016
9961
9923
9911
9913
9922
9951
10007
10069
10099
10075
10020
9979
9983
10020
10061
10083
10089
10092
10093
10086
10073
10064
10072
10089
10101
10096
10086
10088
10110
10142
10168
10183
10198
10218
10239
10246
10232
10201
10169
10147
10139
10143
10153
10166
10181
10195
10208
10222
10236
10250
10260
10260
10243
10210
10171
10144
10142
10158
10169
10155
10122
10096
10100
10128
10147
10132
10087
10037
10006
9994
9983
9962
9941
9931
9936
9945
9947
9945
9945
9947
9949
9953
9966
9986
9999
9984
9936
9881
9851
9855
9868
9865
9849
9851
9893
9958
10002
9997
9956
9918
9907
9912
9911
9897
9887
9895
9915
9923
9910
9893
9896
9925
9956
9958
9928
9889
9875
9897
9939
9973
9981
9966
9947
9941
9948
9959
9957
9938
9911
9891
9886
9895
9908
9916
9920
9920
9917
9910
9899
9889
9889
9899
9919
9939
9954
9955
9940
9916
9897
9896
9916
9940
9949
9936
9912
9896
9895
9894
9878
9848
9825
9831
9868
9912
9935
9929
9905
9886
9885
9898
9905
9896
9875
9864
9885
9940
10001
10026
9992
9919
9852
9833
9861
9904
9924
9907
9869
9832
9807
9795
9797
9819
9860
9904
9928
9924
9908
9903
9917
9933
9929
9902
9872
9865
9887
9918
9932
9916
9883
9859
9858
9876
9895
9900
9894
9892
9903
9923
9932
9915
9876
9837
9819
9829
9852
9870
9879
9887
9900
9915
9920
9904
9872
9839
9822
9825
9843
9866
9884
9890
9884
9873
9867
9870
9880
9888
9888
9880
9872
9869
9876
9890
9905
9915
9915
9908
9900
9901
9912
9927
9930
9914
9886
9866
9870
9897
9932
9950
9939
9908
9878
9873
9900
9945
9983
9995
9982
9959
9945
9944
9944
9935
9916
9899
9890
9890
9887
9879
9869
9864
9864
9866
9865
9866
9875
9892
9908
9915
9914
9911
9910
9905
9888
9859
9835
9832
9858
9894
9915
9905
9872
9841
9834
9853
9877
9884
9866
9838
9824
9836
9863
9883
9883
9869
9855
9850
9850
9853
9864
9896
9955
10035
10123
10211
10298
10383
10461
10532
10607
10704
10819
10915
10943
10873
10724
10541
10361
10187
10011
9840
9708
9643
9637
9657
9674
9692
9735
9806
9873
9896
9865
9813
9786
9801
9836
9860
9864
9865
9879
9896
9896
9869
9828
9802
9807
9835
9866
9884
9888
9888
9892
9899
9904
9899
9882
9859
9845
9853
9880
9909
9919
9902
9873
9861
9880
9920
9952
9958
9939
9917
9909
9917
9927
9929
9926
9928
9940
9957
9965
9952
9922
9888
9869
9871
9888
9908
9919
9922
9929
9951
9985
10015
10025
10013
9990
9974
9969
9967
9961
9956
9963
9990
10029
10062
10076
10074
10064
10050
10033
10019
10027
10070
10137
10188
10186
10131
10068
10049
10092
10161
10200
10180
10124
10078
10077
10119
10177
10224
10247
10249
10237
10215
10186
10155
10127
10108
10109
10137
10188
10240
10267
10252
10210
10170
10157
10171
10189
10188
10160
10113
10065
10032
10024
10040
10064
10077
10062
10025
9991
9982
9995
10008
10001
9971
9935
9912
9905
9907
9915
9928
9945
9956
9949
9928
9907
9900
9900
9890
9863
9833
9823
9837
9854
9852
9833
9825
9853
9910
9959
9970
9942
9903
9882
9890
9914
9937
9948
9948
9940
9932
9927
9923
9911
9887
9855
9837
9850
9893
9936
9949
9928
9897
9885
9896
9912
9908
9885
9861
9854
9867
9889
9911
9931
9944
9941
9914
9874
9847
9855
9892
9927
9932
9907
9878
9870
9886
9907
9919
9921
9924
9929
9924
9897
9857
9827
9826
9851
9882
9901
9908
9912
9916
9913
9895
9869
9852
9858
9880
9896
9891
9867
9841
9829
9838
9861
9888
9909
9909
9879
9827
9782
9779
9829
9905
9959
9957
9905
9839
9794
9779
9784
9801
9831
9872
9910
9921
9898
9862
9842
9854
9883
9899
9887
9853
9818
9800
9806
9833
9872
9907
9918
9893
9845
9806
9801
9830
9868
9892
9895
9888
9877
9859
9831
9801
9788
9797
9817
9829
9832
9842
9870
9905
9919
9901
9871
9860
9873
9882
9854
9792
9736
9732
9783
9852
9895
9899
9884
9875
9878
9879
9867
9847
9835
9839
9854
9867
9871
9867
9862
9864
9873
9885
9889
9874
9843
9815
9811
9835
9870
9890
9882
9860
9849
9859
9877
9889
9891
9894
9907
9923
9921
9896
9864
9852
9873
9916
9952
9962
9946
9918
9891
9870
9857
9856
9871
9900
9931
9949
9945
9925
9897
9871
9850
9836
9831
9837
9848
9852
9841
9818
9801
9806
9836
9873
9893
9885
9859
9836
9829
9842
9861
9873
9871
9853
9827
9805
9800
9814
9835
9845
9834
9810
9793
9795
9805
9798
9767
9734
9736
9797
9898
9999
10070
10120
10182
10288
10432
10578
10688
10753
10791
10831
10875
10897
10853
10722
10517
10284
10066
9886
9741
9626
9552
9540
9592
9673
9732
9743
9723
9720
9759
9823
9865
9856
9813
9783
9795
9839
9881
9894
9880
9860
9850
9847
9845
9845
9855
9876
9898
9903
9879
9832
9781
9747
9747
9783
9845
9906
9944
9947
9923
9893
9874
9868
9867
9865
9864
9872
9885
9896
9896
9887
9879
9881
9894
9907
9912
9909
9904
9911
9935
9972
10004
10014
9995
9956
9920
9902
9899
9897
9885
9871
9873
9897
9930
9950
9948
9937
9939
9960
9987
10006
10008
10000
9987
9973
9965
9977
10019
10081
10129
10137
10106
10068
10054
10067
10086
10094
10096
10108
10130
10142
10125
10087
10064
10082
10130
10173
10184
10170
10160
10169
10186
10196
10195
10195
10203
10210
10204
10188
10181
10193
10212
10213
10189
10155
10136
10135
10133
10114
10087
10075
10087
10106
10102
10063
10009
9973
9970
9988
10001
9994
9970
9939
9912
9893
9885
9889
9903
9922
9939
9949
9949
9940
9928
9916
9907
9899
9884
9862
9836
9813
9797
9788
9789
9807
9848
9904
9952
9966
9946
9913
9894
9899
9915
9925
9922
9906
9880
9848
9822
9823
9860
9912
9939
9914
9856
9808
9804
9835
9869
9885
9892
9910
9936
9944
9923
9888
9873
9887
9907
9904
9877
9852
9852
9870
9884
9881
9876
9881
9890
9887
9869
9859
9879
9915
9929
9894
9830
9787
9793
9833
9867
9878
9881
9901
9933
9944
9912
9855
9811
9811
9847
9892
9918
9914
9885
9842
9803
9787
9806
9848
9889
9907
9900
9886
9877
9869
9850
9823
9803
9804
9824
9847
9860
9865
9870
9880
9887
9885
9871
9849
9823
9795
9777
9780
9810
9851
9878
9875
9852
9834
9836
9851
9864
9868
9872
9883
9890
9871
9823
9768
9746
9777
9843
9900
9913
9880
9834
9809
9816
9839
9850
9841
9823
9817
9831
9854
9869
9866
9853
9845
9847
9856
9860
9857
9851
9846
9847
9851
9859
9871
9881
9880
9861
9827
9791
9768
9763
9775
9798
9826
9850
9863
9865
9866
9879
9903
9916
9898
9851
9804
9790
9810
9839
9847
9833
9825
9846
9890
9926
9928
9900
9870
9860
9871
9885
9890
9884
9874
9868
9864
9860
9860
9867
9883
9902
9916
9921
9918
9914
9919
9935
9953
9958
9941
9906
9872
9856
9860
9873
9879
9874
9861
9846
9836
9834
9845
9868
9892
9897
9870
9820
9773
9757
9780
9830
9880
9904
9888
9840
9789
9771
9799
9851
9880
9861
9811
9782
9811
9883
9944
9947
9897
9841
9820
9834
9851
9843
9818
9804
9824
9881
9960
10046
10130
10207
10274
10340
10422
10535
10675
10816
10921
10960
10924
10820
10667
10493
10323
10173
10042
9915
9783
9658
9571
9546
9585
9661
9740
9797
9827
9835
9831
9826
9825
9834
9850
9867
9878
9879
9873
9865
9863
9870
9885
9903
9913
9914
9908
9897
9884
9869
9857
9857
9878
9913
9946
9958
9950
9935
9931
9941
9955
9959
9951
9936
9920
9905
9896
9900
9925
9963
9994
9997
9970
9929
9902
9906
9936
9975
10000
10002
9986
9967
9960
9970
9985
9994
9995
9999
10015
10036
10039
10012
9969
9950
9981
10053
10121
10143
10113
10063
10034
10044
10080
10113
10120
10100
10069
10051
10063
10101
10141
10162
10155
10135
10124
10134
10157
10184
10211
10242
10272
10289
10285
10262
10243
10243
10261
10285
10300
10305
10302
10293
10278
10267
10272
10297
10325
10327
10292
10241
10209
10217
10257
10299
10319
10316
10299
10274
10241
10201
10164
10141
10142
10165
10200
10227
10228
10192
10133
10081
10064
10078
10095
10085
10056
10042
10066
10111
10130
10092
10017
9960
9954
9989
10023
10028
10015
10011
10029
10056
10070
10065
10051
10037
10025
10015
10010
10019
10039
10058
10061
10047
10030
10025
10035
10054
10076
10097
10111
10106
10076
10029
9994
9996
10044
10113
10170
10187
10161
10112
10064
10037
10034
10051
10075
10095
10106
10104
10090
10071
10062
10073
10104
10140
10156
10143
10113
10091
10091
10110
10134
10149
10153
10149
10141
10130
10124
10131
10148
10161
10154
10125
10094
10077
10075
10074
10070
10073
10099
10139
10165
10154
10117
10092
10105
10144
10170
10165
10146
10149
10183
10221
10228
10197
10156
10132
10124
10113
10089
10067
10071
10103
10138
10152
10145
10139
10152
10176
10186
10168
10135
10113
10115
10134
10152
10160
10163
10170
10181
10188
10184
10172
10162
10161
10172
10193
10214
10230
10235
10231
10221
10214
10211
10209
10204
10193
10183
10182
10191
10200
10197
10177
10152
10140
10151
10176
10196
10197
10186
10183
10204
10242
10277
10290
10281
10263
10247
10232
10216
10199
10192
10201
10215
10222
10215
10209
10223
10262
10305
10322
10300
10257
10220
10209
10218
10230
10235
10234
10238
10252
10269
10279
10276
10261
10244
10236
10246
10276
10316
10352
10375
10386
10391
10395
10388
10361
10314
10271
10257
10281
10324
10354
10353
10330
10309
10304
10310
10310
10298
10285
10288
10307
10328
10335
10327
10317
10318
10327
10333
10327
10311
10297
10293
10299
10309
10315
10316
10312
10307
10303
10309
10325
10345
10358
10358
10351
10346
10350
10355
10348
10327
10301
10284
10273
10260
10241
10232
10259
10333
10438
10538
10611
10661
10714
10788
10882
10979
11070
11153
11230
11291
11316
11292
11218
11102
10955
10783
10597
10422
10282
10193
10145
10121
10117
10138
10192
10266
10329
10356
10350
10338
10348
10382
10417
10430
10419
10403
10398
10404
10404
10387
10365
10362
10393
10443
10476
10466
10417
10365
10344
10362
10392
10406
10398
10392
10413
10455
10487
10482
10445
10414
10420
10456
10490
10498
10491
10494
10517
10536
10524
10484
10454
10467
10514
10552
10550
10521
10506
10529
10570
10590
10569
10529
10503
10499
10499
10482
10447
10420
10416
10436
10466
10497
10530
10563
10583
10582
10569
10565
10585
10618
10644
10650
10644
10645
10660
10680
10698
10714
10733
10750
10753
10734
10704
10685
10688
10705
10718
10723
10732
10756
10790
10816
10819
10804
10788
10785
10794
10803
10803
10793
10780
10774
10780
10796
10814
10820
10809
10787
10773
10782
10809
10838
10851
10843
10823
10802
10786
10774
10764
10752
10730
10690
10642
10607
10605
10634
10669
10681
10662
10631
10612
10610
10611
10604
10591
10583
10585
10584
10570
10548
10534
10539
10552
10554
10535
10507
10490
10494
10512
10528
10536
10536
10530
10521
10514
10514
10524
10537
10537
10518
10490
10476
10490
10527
10562
10577
10567
10547
10532
10532
10550
10582
10618
10647
10656
10644
10620
10597
10579
10560
10534
10506
10489
10496
10523
10551
10565
10565
10564
10576
10596
10608
10596
10560
10518
10491
10497
10532
10582
10624
10640
10624
10585
10544
10515
10505
10504
10502
10498
10498
10507
10525
10545
10565
10588
10613
10631
10625
10593
10552
10529
10539
10570
10595
10600
10591
10579
10568
10547
10511
10477
10472
10503
10544
10555
10523
10473
10453
10482
10543
10595
10615
10606
10588
10568
10543
10509
10481
10482
10521
10576
10613
10604
10553
10490
10445
10433
10446
10469
10495
10526
10565
10605
10630
10628
10602
10565
10536
10519
10510
10499
10486
10476
10475
10483
10496
10514
10536
10560
10574
10571
10557
10549
10557
10572
10571
10543
10497
10465
10467
10496
10527
10539
10533
10520
10513
10511
10514
10522
10541
10565
10571
10541
10481
10423
10405
10438
10499
10550
10566
10554
10536
10526
10523
10518
10510
10510
10528
10562
10596
10614
10607
10577
10536
10497
10475
10483
10518
10563
10593
10595
10582
10576
10589
10609
10611
10587
10554
10539
10552
10576
10584
10565
10533
10507
10497
10494
10494
10497
10506
10516
10514
10497
10478
10476
10491
10504
10498
10474
10455
10459
10481
10495
10488
10471
10470
10497
10539
10572
10579
10561
10530
10494
10461
10439
10435
10449
10468
10477
10471
10454
10437
10427
10426
10439
10469
10516
10571
10630
10694
10774
10879
11001
11125
11242
11352
11453
11528
11548
11489
11359
11191
11019
10863
10715
10566
10415
10277
10173
10117
10112
10150
10215
10290
10356
10401
10426
10437
10442
10445
10445
10441
10438
10443
10460
10485
10504
10505
10482
10449
10424
10417
10427
10441
10456
10474
10500
10526
10534
10515
10476
10440
10424
10428
10438
10443
10446
10459
10483
10508
10520
10511
10490
10470
10459
10461
10470
10479
10478
10469
10461
10469
10492
10515
10517
10498
10476
10476
10498
10519
10518
10496
10478
10485
10509
10523
10513
10490
10480
10496
10524
10543
10542
10532
10529
10538
10548
10548
10539
10530
10533
10552
10582
10609
10620
10613
10602
10606
10634
10672
10694
10685
10659
10645
10663
10705
10742
10755
10742
10719
10698
10684
10672
10664
10663
10672
10685
10696
10706
10717
10731
10748
10764
10775
10776
10765
10741
10712
10694
10696
10712
10729
10736
10733
10722
10702
10670
10631
10601
10592
10601
10606
10589
10552
10520
10513
10531
10558
10574
10568
10538
10490
10438
10399
10387
10398
10412
10410
10391
10373
10368
10369
10361
10342
10330
10341
10370
10388
10378
10354
10345
10366
10400
10417
10410
10391
10380
10380
10381
10379
10378
10380
10375
10354
10327
10319
10342
10378
10393
10375
10350
10350
10379
10406
10403
10371
10342
10335
10343
10346
10340
10346
10376
10415
10433
10415
10382
10359
10345
10321
10275
