462
484
504
466
510
552
608
664
698
786
876
980
1086
1202
1318
1552
1658
1764
1910
2058
2238
2262
2288
2216
2144
2032
1684
1338
1020
704
262
-181
-457
-399
-341
-165
8
378
414
450
510
570
536
500
556
532
508
510
510
514
512
508
510
510
506
508
508
510
510
512
512
516
518
520
524
526
532
536
538
540
542
544
546
550
552
554
556
558
562
566
568
572
576
584
590
596
604
610
618
626
646
656
666
676
686
708
720
742
754
766
778
802
814
828
840
854
880
894
908
922
938
952
968
1000
1016
1032
1048
1066
1086
1104
1122
1144
1168
1200
1216
1232
1246
1260
1274
1288
1312
1322
1332
1340
1348
1360
1364
1368
1368
1370
1368
1366
1358
1350
1344
1334
1326
1302
1288
1274
1258
1242
1242
1220
1200
1178
1158
1134
1112
1068
1044
1022
998
974
928
904
880
854
830
806
782
732
708
682
658
632
582
558
532
510
486
458
444
430
418
404
394
384
370
364
358
356
352
346
346
344
344
342
342
342
340
340
340
340
340
340
342
342
344
344
350
354
358
364
370
376
382
396
404
412
420
428
440
446
452
456
460
464
466
466
466
464
462
460
452
448
444
442
438
436
432
428
428
426
428
428
432
436
438
442
444
454
458
462
466
470
474
478
486
490
492
494
496
500
502
504
506
508
510
510
514
516
516
518
518
520
522
522
524
524
524
524
522
522
522
522
520
518
518
516
516
516
516
518
518
520
520
522
524
530
532
534
538
540
546
550
552
554
554
556
558
558
558
556
554
552
548
546
542
540
536
528
526
522
520
516
514
510
504
502
498
496
494
490
488
486
484
480
476
474
472
470
468
466
464
462
462
460
460
458
460
462
464
466
468
472
476
484
490
494
500
504
516
522
526
530
534
538
542
548
550
550
550
548
544
540
536
532
526
514
508
500
494
486
480
472
460
456
450
446
442
440
440
440
442
444
448
450
458
464
468
474
480
490
496
502
508
512
522
528
532
536
538
544
550
560
570
580
574
566
600
580
560
596
632
636
640
776
858
940
1032
1126
1330
1432
1534
1606
1680
2066
2130
2196
2166
2138
2114
2092
1550
1216
884
548
210
-201
-321
-441
-445
-449
-229
-9
-1
112
224
214
202
302
340
378
360
340
382
394
406
420
434
446
456
472
484
494
504
512
530
540
548
556
564
572
580
596
604
610
616
622
632
638
642
646
650
654
658
666
670
674
680
684
696
704
710
718
726
744
754
764
774
786
796
808
830
838
848
856
866
880
886
892
896
900
902
906
910
912
914
916
920
928
934
940
948
958
978
990
1004
1020
1036
1032
1030
1078
1102
1128
1152
1178
1228
1244
1260
1274
1290
1302
1314
1332
1336
1342
1344
1346
1342
1336
1330
1322
1314
1288
1272
1258
1262
1266
1242
1220
1170
1156
1142
1108
1076
1004
966
930
892
854
816
780
712
680
648
620
590
568
546
522
502
480
450
436
420
408
396
384
372
354
348
340
334
328
322
320
318
320
320
322
324
330
336
342
350
356
372
382
390
400
408
418
428
446
456
464
472
480
492
498
504
508
512
518
520
520
522
522
522
522
522
522
520
520
520
520
520
520
520
520
520
518
518
518
518
518
516
512
510
506
504
500
494
490
486
484
480
476
472
466
464
460
458
456
452
452
450
450
448
448
448
448
448
448
448
448
448
450
450
450
450
452
454
456
458
460
464
466
470
474
476
480
482
484
486
486
486
486
486
484
478
474
470
466
460
450
446
440
434
428
420
418
414
412
410
410
408
410
414
416
420
422
430
434
438
442
446
450
454
460
462
464
466
466
466
466
466
466
466
466
464
464
464
464
466
468
474
478
482
488
494
510
520
528
538
548
560
572
594
606
616
628
638
658
666
674
680
686
692
696
700
702
702
702
700
694
692
688
684
678
668
664
658
654
650
646
640
632
630
626
624
620
614
612
610
608
606
606
604
602
602
600
600
600
602
604
606
610
612
620
626
632
640
646
656
664
690
700
710
710
708
746
746
748
780
812
856
902
842
928
1014
1126
1238
1494
1616
1740
1836
1932
2358
2364
2370
2272
2174
2060
1948
1302
948
596
316
34
-285
-309
-333
-95
142
140
136
348
394
440
418
394
476
468
460
478
496
506
516
532
542
552
560
568
586
594
602
610
618
634
642
648
656
662
668
674
684
688
690
694
696
696
696
696
696
694
692
688
684
682
678
676
672
668
668
666
666
666
668
670
672
676
678
684
688
700
708
716
724
732
752
764
778
790
804
820
836
830
848
868
888
910
956
982
1008
1034
1062
1118
1152
1186
1204
1224
1248
1272
1316
1324
1332
1344
1358
1378
1384
1392
1396
1402
1404
1406
1404
1400
1396
1390
1384
1364
1352
1342
1328
1314
1326
1306
1288
1264
1242
1214
1188
1164
1126
1088
1048
1008
926
886
846
808
770
734
700
636
626
616
594
570
550
536
522
512
502
494
486
474
470
466
464
460
458
458
456
456
454
452
452
450
448
446
444
440
434
432
428
426
422
416
414
412
412
410
410
410
410
412
414
416
418
424
428
430
434
436
440
442
442
444
444
444
444
442
440
438
436
434
430
428
424
422
420
418
416
414
414
412
412
412
412
412
412
414
414
414
414
414
416
416
416
416
418
418
418
420
420
422
424
424
426
428
430
430
434
436
436
438
438
438
438
438
438
436
434
432
430
428
424
422
418
410
408
404
402
398
394
392
390
390
390
392
392
396
400
404
408
412
424
430
436
444
450
456
462
476
482
486
492
496
502
506
508
510
512
512
512
512
512
512
512
510
506
506
504
504
502
498
498
496
496
496
496
494
496
496
496
498
498
502
504
506
510
512
516
520
522
526
528
532
534
538
540
542
542
542
542
540
538
536
534
530
526
518
514
510
506
500
488
484
478
474
468
458
454
450
446
440
436
430
420
416
410
406
400
390
384
378
372
366
360
354
342
336
330
326
322
316
314
312
314
314
316
322
326
336
346
356
364
394
390
384
382
378
452
502
550
536
520
592
664
876
1004
1132
1272
1412
1712
1920
2128
2222
2316
2450
2586
2344
2088
1834
1500
1166
462
258
54
-65
-185
-207
-61
84
76
66
88
108
136
164
190
228
266
280
300
318
336
354
374
392
422
434
446
458
470
490
500
508
516
522
534
540
544
548
552
556
560
566
570
574
580
584
596
604
612
620
628
640
650
672
684
696
710
722
744
756
768
778
790
810
818
826
832
838
842
848
856
858
862
864
868
874
876
880
884
890
894
900
916
924
932
942
954
978
990
1004
1018
1034
1064
1080
1096
1112
1130
1138
1146
1182
1198
1216
1240
1266
1298
1312
1328
1342
1356
1368
1382
1402
1410
1418
1422
1428
1432
1428
1426
1420
1416
1406
1396
1368
1380
1394
1370
1348
1296
1276
1258
1222
1186
1112
1074
1038
1000
962
924
886
808
768
692
652
576
540
502
496
490
468
446
444
434
422
416
410
406
406
404
406
408
416
422
426
434
442
450
458
474
484
492
502
510
526
536
544
552
558
566
572
584
590
594
598
602
608
610
612
612
612
608
606
604
600
596
592
586
574
568
562
556
548
536
530
524
518
512
508
502
492
490
486
484
480
476
474
472
472
470
468
468
466
464
462
460
458
454
452
448
444
440
432
428
424
420
416
412
408
402
400
396
394
392
390
390
390
392
392
394
396
402
406
408
412
416
424
428
430
434
436
440
442
444
444
444
444
444
442
442
440
438
434
430
428
424
422
418
416
412
406
404
400
398
394
386
384
380
376
370
360
356
350
344
336
330
322
306
298
288
280
272
256
250
244
238
232
230
226
222
224
224
228
232
244
254
262
274
284
308
322
334
348
362
376
388
414
426
436
446
454
470
476
480
482
484
486
486
484
482
480
478
474
468
464
460
458
454
450
448
446
446
446
446
446
448
450
450
452
454
456
458
458
458
458
458
458
454
452
450
448
444
438
436
432
430
426
426
424
422
424
424
426
428
446
434
422
444
464
428
470
510
500
490
572
654
854
968
1082
1200
1318
1538
1584
1630
1838
2046
2076
2108
1990
1940
1892
1602
1312
766
428
88
-75
-239
-283
-33
214
204
192
220
248
342
392
440
478
516
466
482
498
512
524
532
540
548
548
548
550
550
548
546
544
542
538
530
528
524
522
520
518
516
516
518
518
522
524
534
540
546
554
562
572
580
600
612
622
634
644
668
680
692
704
714
736
746
758
768
780
790
802
826
836
848
860
872
896
908
920
932
946
960
974
1004
1018
1032
1048
1064
1094
1110
1126
1140
1156
1172
1188
1220
1234
1250
1264
1280
1308
1322
1336
1348
1362
1384
1394
1406
1414
1424
1430
1438
1446
1450
1454
1454
1454
1444
1434
1424
1438
1454
1434
1414
1450
1412
1374
1328
1284
1188
1120
1054
990
928
816
792
770
690
656
620
562
558
552
532
512
486
474
460
450
440
432
424
410
406
400
398
394
390
388
386
386
386
386
386
386
388
388
390
390
392
394
396
398
398
402
404
404
406
408
412
414
418
420
422
426
428
432
434
436
438
440
446
448
450
452
454
458
460
464
466
468
470
472
476
478
480
480
480
480
480
480
478
476
474
470
462
458
454
450
446
442
436
428
424
420
418
416
412
412
412
414
416
422
426
430
436
442
450
456
470
478
486
494
500
516
522
528
534
540
546
550
558
562
564
566
568
570
570
570
570
568
566
564
560
558
556
554
550
542
538
534
530
526
518
514
508
502
496
492
486
474
468
462
456
448
436
432
426
420
414
406
402
398
396
392
392
390
388
390
390
392
394
402
406
410
416
420
428
434
446
454
462
470
476
490
498
504
512
518
530
534
538
542
546
550
552
552
552
552
550
548
542
538
532
528
522
516
508
496
490
482
476
468
456
450
444
440
434
432
428
422
420
418
418
416
414
416
416
416
416
418
420
422
424
426
428
430
436
442
446
452
458
470
480
488
502
514
528
542
530
552
574
570
566
640
688
736
748
762
908
994
1082
1184
1288
1398
1510
1722
1904
2088
2200
2312
2352
2260
2168
2048
1930
1604
1280
592
356
118
-49
-219
-369
-361
-353
-201
-51
-25
-19
-15
30
76
108
138
186
184
180
200
220
260
280
298
318
338
360
380
422
444
466
490
512
558
580
600
614
628
654
666
678
688
696
704
710
718
722
724
724
724
722
720
718
716
712
708
704
696
692
688
686
682
676
674
670
670
670
670
670
674
678
682
688
694
710
720
740
752
780
794
810
826
842
848
854
894
914
934
954
974
1012
1030
1050
1064
1080
1094
1108
1132
1142
1152
1160
1170
1184
1188
1194
1198
1202
1206
1206
1206
1204
1204
1200
1198
1188
1180
1174
1164
1156
1138
1126
1116
1100
1084
1088
1094
1054
1030
1008
1008
1008
930
886
844
798
752
664
622
580
544
506
474
442
390
388
386
366
344
314
302
290
280
270
264
256
244
240
234
232
230
230
232
232
234
236
242
246
250
254
258
262
266
276
280
284
290
294
302
308
312
318
324
330
334
348
356
362
370
376
394
402
410
420
428
438
446
464
472
480
488
494
506
512
516
520
522
524
524
524
524
522
520
516
510
506
502
498
494
486
482
478
476
472
470
466
462
460
456
454
452
448
446
442
440
436
430
428
424
422
418
416
414
410
410
410
412
412
418
424
430
438
444
454
462
484
496
508
522
534
562
576
588
602
614
638
650
660
670
678
686
694
706
712
716
720
724
732
734
736
736
738
738
738
740
740
740
738
736
736
732
726
722
718
714
708
702
696
682
676
668
660
652
638
632
624
618
610
606
600
592
590
588
586
584
584
586
586
588
590
592
594
598
600
602
604
606
606
606
606
604
602
594
590
584
578
572
564
554
536
526
514
504
492
468
456
442
432
420
410
398
378
370
362
356
348
340
340
338
340
340
348
356
362
372
380
392
402
434
450
466
466
466
514
520
526
562
596
642
686
672
750
830
928
1028
1244
1344
1446
1458
1470
1694
1826
1960
1882
1804
1722
1640
1048
908
770
658
544
130
70
10
154
296
264
232
254
246
238
248
258
292
298
302
312
320
340
352
364
376
386
396
406
424
434
442
450
456
468
472
476
480
484
486
488
490
492
492
492
492
492
494
494
496
496
498
498
504
508
512
518
524
536
544
552
562
570
590
600
610
622
632
644
656
678
690
702
714
726
746
758
770
780
792
802
814
836
846
858
868
880
904
916
928
940
954
982
998
1014
1030
1046
1048
1050
1088
1108
1128
1148
1170
1214
1236
1258
1276
1294
1308
1324
1350
1358
1368
1374
1382
1388
1386
1386
1382
1380
1366
1354
1342
1352
1364
1344
1324
1274
1268
1262
1228
1194
1116
1074
1032
986
942
896
852
766
726
686
650
612
548
520
492
468
442
414
390
366
352
338
324
310
290
284
276
272
266
264
266
268
272
276
284
290
308
318
328
338
348
368
376
384
390
396
400
402
404
402
398
394
388
372
362
352
342
330
308
298
288
280
272
266
258
252
252
252
256
258
270
278
286
296
304
314
324
344
354
362
370
378
390
394
396
398
398
398
396
392
390
386
382
378
370
366
362
360
356
350
348
346
346
344
342
340
338
336
334
332
330
324
322
318
314
308
300
296
290
286
280
276
270
260
256
252
248
244
238
238
236
236
234
234
234
238
240
242
246
248
254
258
262
268
272
284
290
294
300
306
314
320
332
340
346
354
362
376
386
394
402
410
420
430
448
460
470
480
490
512
524
534
546
556
566
576
596
606
614
622
630
644
652
658
664
670
682
688
692
696
700
706
710
718
722
726
728
734
736
738
736
736
734
732
726
720
712
702
692
668
654
638
622
606
606
582
558
532
506
482
456
418
404
388
378
366
348
344
340
340
340
344
348
364
378
390
406
420
412
436
458
482
506
558
586
614
638
662
686
708
756
786
816
856
896
1000
988
976
1064
1154
1266
1380
1628
1744
1860
1948
2036
2432
2446
2460
2368
2278
2084
1732
1382
1154
926
538
150
-65
-39
-13
72
156
182
204
224
240
254
280
306
354
364
374
388
400
422
434
444
452
460
466
472
482
488
492
496
500
506
510
514
520
524
534
540
544
552
558
564
570
584
592
598
604
610
622
628
632
636
640
644
646
648
648
648
648
646
642
642
640
638
636
636
638
638
640
642
648
654
670
680
690
704
718
748
744
740
764
790
816
842
896
920
946
970
994
1036
1044
1054
1068
1084
1110
1120
1132
1142
1154
1162
1172
1190
1198
1206
1212
1220
1234
1238
1242
1244
1248
1250
1252
1250
1244
1238
1226
1214
1250
1228
1208
1224
1240
1156
1108
1060
992
926
866
808
762
720
678
642
604
542
518
492
488
482
460
438
398
382
364
352
338
316
306
296
288
280
274
268
264
264
262
264
266
274
280
286
294
300
316
326
334
342
350
358
366
378
384
388
390
392
394
392
390
388
384
380
374
362
358
352
348
342
334
332
328
328
328
332
336
340
348
354
362
370
388
400
410
420
430
448
458
466
472
478
484
488
492
494
494
492
490
482
478
472
468
462
450
444
438
434
428
424
420
412
410
406
404
400
396
394
392
390
388
386
384
378
376
374
372
370
364
362
360
360
358
356
356
354
354
354
356
356
358
360
360
362
362
364
366
366
368
368
370
370
370
372
372
374
376
380
384
386
390
394
400
404
416
422
428
436
442
456
462
468
472
476
484
486
486
486
486
484
480
472
466
460
454
446
432
426
420
414
408
406
402
402
404
406
412
418
438
452
464
480
494
486
512
538
560
580
612
644
676
690
702
712
722
732
726
718
708
682
692
700
676
650
598
570
542
516
490
442
434
426
414
400
390
378
366
364
360
360
360
366
374
380
390
398
410
420
448
464
478
480
482
546
552
556
578
598
646
664
682
706
728
734
740
812
864
916
876
838
1000
1136
1272
1436
1600
1750
1900
2616
2800
2984
2882
2780
2588
2462
2338
1998
1660
1322
984
424
242
58
-19
-97
-69
58
184
202
218
220
240
258
284
310
336
360
368
378
386
396
404
416
420
424
426
428
428
428
428
426
424
424
422
418
418
418
418
418
420
424
426
430
432
436
440
450
456
462
468
474
486
492
496
502
506
512
516
526
530
534
540
544
552
558
562
568
574
586
594
602
612
622
634
644
670
686
700
716
732
734
754
774
796
818
840
862
908
930
954
976
1000
1046
1068
1090
1112
1134
1176
1196
1216
1232
1248
1262
1278
1302
1312
1324
1330
1338
1350
1352
1354
1354
1354
1350
1346
1332
1322
1314
1300
1288
1258
1264
1270
1248
1226
1202
1178
1124
1106
1088
1054
1022
954
918
882
846
810
738
704
670
636
602
572
540
480
466
452
428
404
362
354
344
332
320
310
300
286
282
278
276
274
276
280
282
286
290
302
310
316
324
330
338
346
362
370
376
384
392
408
416
422
430
436
444
450
462
468
474
478
482
490
492
494
494
494
492
490
486
482
476
470
462
444
436
426
416
404
384
374
362
354
344
336
326
312
308
302
300
296
292
292
292
294
296
302
306
310
314
318
322
326
334
338
340
344
346
348
350
350
350
348
346
344
338
336
332
328
324
318
314
310
308
304
302
300
296
296
294
294
294
296
298
298
300
300
304
306
308
310
310
312
312
314
314
314
316
316
316
318
318
320
320
322
322
326
330
332
336
338
346
352
356
360
364
374
380
384
388
392
398
402
410
414
418
422
426
436
440
444
450
456
462
468
480
488
494
502
510
526
536
544
552
560
576
584
592
600
606
612
618
628
634
638
640
642
646
646
646
646
644
642
638
630
626
620
614
608
594
586
578
570
562
546
538
530
522
514
508
500
486
482
476
472
468
464
464
464
464
464
468
472
478
488
498
492
484
526
508
490
532
572
560
548
702
804
908
1024
1140
1378
1484
1590
1776
1964
2092
2072
2052
1938
1826
1690
1556
940
784
628
308
-13
-185
-165
-147
-1
142
158
174
154
186
218
252
284
338
340
342
354
366
392
402
410
418
424
428
432
438
440
442
442
442
442
440
438
438
436
436
434
432
432
432
434
434
438
442
444
450
454
466
474
480
490
498
508
518
540
552
564
578
590
616
632
646
660
674
690
704
732
746
762
776
792
822
836
850
864
878
906
920
934
946
960
972
986
1012
1024
1038
1050
1064
1090
1102
1116
1128
1142
1156
1170
1196
1208
1222
1234
1246
1268
1276
1286
1294
1302
1306
1310
1314
1312
1312
1306
1302
1284
1270
1258
1272
1286
1244
1220
1196
1168
1142
1110
1080
1010
978
946
916
888
866
840
816
794
772
750
690
672
652
634
614
576
558
538
520
500
462
444
424
406
388
368
346
316
302
288
276
264
242
234
224
218
212
208
204
200
202
202
206
208
220
228
236
246
256
278
292
304
318
332
348
362
392
408
424
440
454
486
502
516
530
544
558
570
594
604
614
622
630
642
648
652
654
656
658
658
656
654
650
648
646
640
638
634
634
632
630
632
634
638
640
644
648
660
668
674
682
690
704
712
718
724
728
734
736
736
736
732
720
714
706
696
686
666
654
642
630
618
606
592
566
554
540
528
516
492
482
470
460
450
440
430
412
404
396
388
380
368
364
358
354
350
342
340
338
338
338
338
338
340
342
342
346
348
354
358
360
364
368
372
376
386
390
394
398
402
410
416
420
424
426
434
438
440
442
444
448
450
452
454
454
454
454
454
454
454
454
452
450
448
444
442
440
438
436
432
430
428
426
424
420
418
416
416
414
412
410
408
408
406
406
406
404
404
404
404
404
404
402
402
402
402
402
400
402
404
404
406
408
412
414
422
428
432
442
450
474
488
500
494
486
528
528
526
564
600
648
696
696
770
844
938
1034
1254
1368
1482
1586
1690
1868
2046
2172
2162
2152
2060
1968
1788
1510
1232
904
578
30
-153
-339
-397
-457
-413
-371
-167
-163
-161
-131
-103
-25
12
50
84
116
144
172
236
268
300
332
364
394
416
438
450
462
488
498
508
516
522
526
530
534
534
534
532
530
522
518
514
510
504
500
496
490
488
486
486
484
486
490
492
496
500
512
520
526
534
540
548
556
574
584
592
602
612
632
642
652
664
676
690
702
744
760
754
750
790
812
836
862
888
902
918
990
1028
1066
1104
1144
1224
1262
1302
1338
1376
1388
1388
1390
1400
1412
1418
1424
1424
1420
1416
1408
1400
1378
1362
1348
1352
1356
1332
1310
1262
1236
1212
1186
1160
1108
1082
1056
1030
1004
952
924
898
872
846
820
796
744
722
698
676
652
608
590
570
558
544
530
516
492
482
470
460
450
434
428
420
414
406
394
388
382
378
372
368
362
350
346
340
334
328
318
314
308
304
300
298
294
290
290
288
288
288
290
294
296
302
306
316
322
328
334
340
346
352
364
368
372
376
380
384
386
386
386
384
382
380
374
370
366
362
358
350
346
342
340
338
338
336
336
338
340
344
346
354
360
364
370
376
386
392
396
402
406
408
410
414
414
414
412
410
406
402
398
394
390
386
382
374
372
370
370
368
368
372
374
378
382
394
404
412
422
432
444
454
476
490
502
514
526
550
562
572
584
594
604
614
630
638
644
652
658
666
670
674
676
678
678
678
676
674
672
668
664
654
650
644
638
632
622
618
612
610
606
604
600
600
602
604
608
612
626
634
640
650
658
676
686
694
702
708
714
720
728
728
726
718
710
702
694
684
672
660
632
618
604
590
574
544
530
514
500
486
472
458
432
420
406
396
384
362
352
340
332
322
304
296
288
282
276
272
266
262
262
262
262
262
270
280
290
302
312
302
290
334
320
306
350
394
518
508
498
596
694
958
1114
1272
1408
1546
1810
2076
2456
2366
2278
2190
2104
1886
1546
1206
874
542
294
44
-197
-201
-205
-39
126
106
126
146
180
212
280
308
336
326
316
330
344
370
380
390
398
406
416
424
430
438
444
450
456
470
478
484
492
500
520
530
540
554
566
592
608
622
638
652
668
684
716
744
758
772
796
806
818
826
834
840
846
856
858
862
864
866
870
872
874
876
880
884
890
902
910
920
930
940
966
980
996
1012
1028
1062
1078
1096
1112
1128
1144
1160
1186
1198
1210
1220
1230
1248
1254
1260
1264
1270
1272
1276
1282
1282
1284
1284
1286
1288
1288
1288
1286
1284
1280
1274
1270
1262
1256
1248
1240
1218
1202
1186
1198
1210
1166
1138
1112
1098
1086
1042
1000
914
872
832
794
758
692
664
636
612
586
538
520
500
476
452
430
408
366
346
326
312
296
266
254
242
232
222
216
208
198
196
194
194
194
200
206
210
218
224
240
250
258
268
278
288
298
316
326
334
342
348
360
366
370
374
376
378
380
380
380
378
378
376
372
370
368
366
364
362
360
356
354
352
350
348
344
342
340
338
334
326
324
320
316
312
308
304
294
290
286
284
280
276
274
272
272
270
272
272
276
280
282
286
288
298
302
306
312
316
326
330
334
340
344
348
352
360
364
366
370
374
380
384
388
392
394
398
402
408
412
414
418
422
426
430
432
434
436
440
442
442
444
446
448
448
450
452
452
454
454
458
460
462
464
464
466
468
472
474
474
476
476
478
480
480
480
480
480
480
480
480
480
480
480
482
484
484
486
488
494
498
502
506
510
516
520
528
534
538
542
546
554
556
558
560
560
560
560
558
556
552
548
544
534
530
524
518
512
498
492
484
478
470
464
458
444
438
430
424
416
402
394
386
380
372
364
356
340
332
324
318
310
300
296
292
290
288
290
292
294
302
308
322
334
360
350
338
364
390
386
432
478
538
596
600
602
770
886
1004
1130
1258
1518
1612
1706
1956
2208
2322
2266
2210
2142
2076
1758
1440
696
396
96
-79
-255
-327
-253
-181
-59
60
72
84
150
188
226
260
292
334
340
344
368
390
430
444
458
470
480
490
498
512
518
522
524
526
526
524
520
516
510
506
500
486
480
474
468
462
452
450
448
448
446
448
450
458
464
470
480
488
508
520
532
546
558
584
598
612
626
640
654
668
696
710
724
736
750
780
794
810
826
842
858
874
882
900
920
940
960
1002
1022
1044
1064
1086
1126
1144
1162
1176
1192
1204
1218
1240
1248
1256
1262
1270
1278
1278
1280
1278
1278
1274
1272
1262
1254
1248
1238
1230
1210
1198
1186
1172
1160
1134
1120
1106
1092
1080
1064
1050
1022
1008
994
980
968
940
926
912
898
886
872
858
832
818
804
790
778
750
738
726
712
698
672
660
646
634
622
610
596
572
560
548
538
526
502
492
480
470
460
450
440
420
412
404
398
390
378
374
368
366
362
360
358
358
360
362
366
368
376
382
386
394
400
412
420
426
434
440
448
454
466
472
478
482
486
494
496
498
500
500
500
500
498
496
492
488
484
474
470
464
458
452
438
432
426
420
414
410
404
396
394
390
390
388
388
390
390
394
396
400
402
410
414
418
424
428
434
438
440
442
444
446
446
446
446
444
442
440
438
436
434
432
430
428
428
426
426
426
426
426
428
430
430
432
434
436
438
438
440
440
442
442
440
440
440
438
436
432
430
428
426
424
420
418
416
414
412
412
412
410
412
412
414
416
422
426
428
434
438
444
448
460
468
474
482
490
506
514
522
532
540
558
568
576
586
594
602
608
622
628
632
636
638
640
640
638
636
632
626
620
604
596
586
576
564
540
528
516
504
492
470
460
450
442
434
428
420
410
406
402
400
398
396
396
396
398
400
402
404
410
416
420
426
432
446
454
460
472
482
508
522
536
532
526
548
570
576
612
648
694
740
726
796
868
964
1060
1174
1288
1522
1586
1650
1890
2132
2228
2186
2144
2014
1886
1354
1186
1018
766
514
320
124
-113
-153
-193
-69
54
24
62
100
114
126
148
168
240
252
264
282
298
326
340
352
364
374
382
390
404
410
414
420
424
432
436
440
446
450
460
468
474
482
488
498
506
524
534
544
554
564
586
596
604
614
624
632
640
652
658
662
666
670
676
678
680
682
682
684
686
686
690
692
696
698
710
718
726
734
744
770
786
802
796
792
814
838
888
900
914
950
988
1066
1104
1142
1178
1214
1230
1254
1278
1300
1322
1334
1346
1372
1382
1392
1400
1410
1420
1422
1426
1424
1424
1420
1416
1404
1394
1384
1368
1354
1374
1352
1332
1306
1280
1268
1228
1188
1144
1100
1050
1002
918
854
792
666
596
554
510
472
434
404
374
376
354
332
314
294
274
264
252
244
234
226
216
202
196
190
186
182
176
174
172
172
170
170
172
172
174
174
178
180
186
190
192
196
200
206
210
214
218
220
222
224
228
230
230
230
230
226
226
224
222
218
212
210
206
204
202
200
196
194
194
192
194
194
196
200
202
206
208
214
218
228
234
240
246
252
266
274
280
288
296
312
322
330
340
348
358
366
386
396
404
414
422
440
450
458
466
472
480
486
498
504
508
512
514
520
522
522
524
524
522
522
520
518
514
512
510
504
500
496
494
492
486
486
484
484
484
486
488
496
502
508
516
524
544
556
566
580
592
606
618
644
656
666
676
686
702
708
712
714
716
714
712
708
704
698
692
684
672
666
660
656
652
650
652
652
656
660
668
674
694
706
718
740
764
774
784
792
802
812
812
814
810
808
802
796
776
764
752
738
724
694
680
664
650
636
624
612
592
586
578
572
566
560
558
556
556
556
556
556
556
556
556
556
556
554
554
554
554
554
554
556
558
560
562
568
572
582
592
600
592
584
624
622
620
660
698
658
720
780
870
962
1074
1186
1430
1542
1656
1740
1826
2206
2204
2204
2106
2008
1898
1790
1162
924
686
340
-7
-281
-297
-313
-127
56
38
18
62
102
142
186
230
306
304
302
322
342
362
376
388
398
406
412
418
430
434
438
440
442
444
444
444
444
442
442
440
436
434
432
430
426
424
424
422
422
420
422
426
428
432
436
442
448
462
472
482
492
502
526
540
552
566
578
592
604
630
644
656
668
678
702
712
722
732
742
762
772
782
792
804
814
826
852
866
882
898
914
908
926
946
968
990
1014
1038
1092
1118
1146
1172
1200
1250
1256
1262
1274
1286
1302
1300
1298
1326
1354
1338
1322
1392
1350
1310
1290
1272
1092
1002
912
892
872
826
782
714
692
670
692
714
676
662
648
636
622
612
602
580
568
554
540
526
498
486
472
460
446
420
410
398
388
376
368
358
344
338
330
326
320
312
310
306
304
300
298
294
288
286
282
280
276
268
266
262
260
256
250
248
246
246
244
244
244
248
252
254
258
262
274
282
290
300
310
322
332
356
370
382
396
410
438
452
464
478
490
514
524
534
544
552
560
566
576
580
584
588
590
592
594
594
594
594
594
594
596
596
596
598
598
600
602
602
604
604
606
608
608
610
610
610
610
610
610
608
608
606
602
600
598
596
594
592
588
582
580
576
574
570
564
562
558
556
552
550
546
540
538
536
534
532
528
526
524
524
522
520
518
516
514
512
510
508
502
498
494
488
482
470
462
454
446
438
430
420
402
394
386
378
370
358
354
350
348
346
346
350
352
356
360
368
374
388
398
406
414
422
438
446
452
458
462
466
468
470
470
468
466
462
454
448
442
436
428
412
406
398
392
384
378
372
360
356
352
350
346
340
340
338
338
338
340
340
346
350
354
360
364
374
382
388
400
412
438
434
428
448
468
456
442
518
570
620
630
640
790
896
1004
1124
1246
1370
1496
1686
1936
2186
2264
2344
2250
2198
2148
1782
1418
1142
866
58
-75
-209
-189
-171
46
92
138
128
118
138
160
182
202
222
226
230
246
254
262
270
278
292
298
304
310
316
324
330
342
350
358
368
376
394
406
416
428
440
466
480
492
506
520
534
548
576
590
602
616
628
652
664
674
684
692
702
710
724
734
740
746
754
758
762
764
768
776
780
784
788
794
798
804
818
826
836
846
856
878
892
906
900
896
914
934
978
1002
1028
1038
1050
1124
1162
1202
1240
1280
1354
1388
1422
1426
1432
1440
1450
1476
1484
1492
1496
1500
1496
1492
1490
1480
1472
1458
1446
1470
1448
1426
1398
1372
1350
1312
1276
1236
1196
1154
1112
1028
986
944
904
864
788
754
722
692
662
654
632
610
590
570
556
542
516
506
494
484
472
452
446
438
432
424
418
412
404
402
398
396
392
390
390
388
388
386
386
388
388
390
390
392
392
396
398
398
400
402
406
410
412
414
416
420
422
426
428
430
432
434
438
440
440
442
442
440
440
438
436
434
432
428
420
416
410
406
400
390
386
380
376
372
368
364
356
354
352
352
350
350
350
350
352
354
358
362
364
366
368
372
374
378
380
380
382
382
380
380
378
376
374
372
370
364
362
358
354
350
346
344
340
340
338
338
336
336
338
338
340
342
348
352
354
358
362
372
378
382
388
392
398
404
414
420
424
430
434
444
450
454
460
464
470
474
482
488
492
496
500
508
512
514
518
520
524
526
526
526
526
526
526
524
522
520
518
516
512
512
510
508
506
506
504
502
502
502
504
504
504
504
504
504
504
502
502
500
498
494
492
488
478
474
468
464
458
450
446
440
438
434
432
430
430
432
432
436
438
446
452
456
464
470
486
496
504
514
522
534
544
564
576
588
600
610
642
642
640
666
690
680
670
758
740
722
804
888
1100
1220
1342
1458
1576
1666
1756
2192
2194
2196
2090
1986
1724
1380
1038
864
692
38
-81
-201
-217
-235
-75
82
32
58
84
100
114
184
214
242
252
260
276
292
328
344
360
374
386
410
422
434
446
456
478
488
498
508
518
528
538
556
566
574
584
592
608
616
624
632
640
648
654
668
676
682
688
694
706
712
718
724
740
746
754
760
766
772
778
792
798
806
812
820
836
844
852
860
868
876
886
906
916
928
940
954
980
994
1010
1024
1040
1044
1062
1082
1102
1124
1146
1168
1212
1232
1254
1268
1284
1312
1322
1334
1342
1350
1354
1360
1362
1360
1358
1352
1346
1328
1314
1300
1310
1322
1300
1278
1226
1214
1202
1166
1130
1052
1012
972
934
896
820
784
750
720
688
658
626
566
548
528
504
480
436
428
420
408
394
384
374
358
354
348
346
342
340
342
342
344
344
350
354
356
360
364
368
370
376
378
380
382
384
388
390
390
392
392
394
394
394
394
394
394
394
396
398
398
398
398
402
404
404
406
406
408
410
412
414
416
418
420
422
424
426
428
428
430
430
432
434
436
438
438
440
442
442
444
444
446
448
448
448
448
448
448
448
448
446
446
444
438
436
432
428
422
418
412
398
392
384
376
368
352
344
334
328
320
314
306
294
290
286
284
282
284
286
288
294
298
312
320
328
338
346
356
366
384
394
402
412
420
434
440
446
452
456
462
466
472
476
480
484
486
492
496
498
502
506
514
520
524
528
532
538
542
552
556
560
564
568
574
578
580
584
586
588
590
594
596
598
600
602
604
604
604
604
604
604
602
600
598
594
592
588
578
572
564
558
550
532
524
514
504
494
484
474
454
444
434
426
418
404
398
392
388
384
378
378
376
378
378
380
382
390
396
402
410
418
436
444
452
464
474
488
502
532
532
532
554
576
550
588
624
676
726
728
912
1022
1132
1250
1370
1594
1680
1768
1966
2164
2208
2122
2038
1946
1856
1514
1172
676
288
-99
-229
-361
-333
-119
94
84
72
106
140
334
338
340
376
412
368
386
402
416
430
442
448
454
458
462
468
472
482
488
492
498
504
516
524
530
540
548
558
566
586
598
608
620
630
650
660
670
680
690
708
716
724
736
742
748
758
762
768
772
776
784
788
792
796
800
804
808
816
820
826
832
838
850
856
864
872
882
900
910
922
934
946
958
972
1002
1018
1034
1036
1038
1076
1096
1118
1138
1160
1182
1204
1246
1266
1286
1304
1322
1352
1366
1380
1392
1404
1414
1424
1440
1444
1450
1454
1458
1460
1458
1456
1452
1448
1436
1426
1418
1406
1394
1380
1368
1336
1338
1342
1320
1298
1252
1226
1200
1182
1166
1136
1106
1042
1006
972
934
896
816
774
734
694
654
572
534
496
464
430
430
430
426
416
406
402
396
394
400
404
410
416
426
434
456
470
482
496
510
536
550
564
576
586
608
616
624
630
636
640
642
646
646
644
642
640
632
628
622
616
610
604
596
582
576
568
562
556
544
540
536
534
530
526
526
526
528
528
530
532
540
544
548
552
556
564
568
572
574
576
576
576
574
570
566
562
556
544
536
528
520
512
504
496
478
472
464
458
452
444
442
440
440
438
440
442
444
448
450
454
456
464
468
472
476
478
484
486
488
490
492
494
494
496
498
498
500
500
502
504
506
508
510
516
520
522
526
528
532
534
538
540
542
544
544
544
544
542
540
538
536
532
522
518
512
506
500
486
480
474
468
462
450
446
442
438
434
432
430
426
426
424
424
422
420
420
418
416
414
412
408
398
394
388
382
376
362
354
346
340
332
318
312
306
302
296
294
292
290
290
290
292
294
302
306
310
314
318
322
326
334
338
342
346
348
352
356
358
362
366
368
368
374
382
388
400
412
444
436
428
398
368
440
492
542
608
672
704
734
952
1070
1190
1306
1422
1624
1784
1944
2020
2098
2096
2094
1890
1780
1670
1330
990
546
168
-211
-323
-437
-381
-169
42
30
18
50
80
172
216
258
292
324
314
336
358
378
396
406
414
434
442
448
456
462
472
478
482
486
488
492
496
498
502
504
508
510
516
520
524
528
532
542
548
552
558
562
568
572
580
584
588
592
594
600
602
604
606
608
610
612
614
616
618
622
624
632
638
642
650
656
672
682
690
702
712
724
736
764
780
796
812
830
838
856
876
896
916
936
958
1000
1022
1044
1064
1086
1128
1146
1164
1178
1192
1216
1224
1232
1238
1244
1246
1248
1242
1236
1232
1222
1212
1182
1194
1208
1184
1162
1136
1110
1070
1030
992
952
914
842
808
774
746
718
698
674
650
628
606
586
566
530
516
500
486
472
446
436
424
414
404
396
386
372
366
360
354
348
338
334
328
324
320
310
304
298
292
286
280
272
256
248
238
228
218
196
184
172
160
148
136
124
102
92
82
74
66
54
50
46
46
44
46
50
54
60
66
74
82
102
114
124
136
148
174
188
200
212
224
236
248
272
284
294
306
316
336
346
356
364
372
380
388
404
410
416
422
428
438
442
446
450
454
460
462
464
466
468
470
472
476
478
480
484
486
492
496
500
506
510
516
522
536
544
552
560
568
588
600
610
620
630
654
666
676
688
700
712
722
740
748
758
766
774
786
790
796
798
800
800
800
796
792
788
782
778
764
756
750
742
736
724
718
712
708
704
700
696
692
692
692
694
694
696
698
700
702
704
706
706
708
708
708
708
706
702
700
698
696
694
690
688
686
686
684
686
686
690
692
694
698
702
710
714
718
722
726
728
726
722
710
702
694
684
674
664
652
628
616
602
590
578
558
550
540
536
530
520
520
520
526
530
544
556
526
546
564
548
532
612
666
720
790
862
870
880
1106
1242
1380
1540
1700
1978
2174
2372
2586
2802
2708
2630
2552
2478
2406
2020
1634
1006
526
46
-91
-231
-79
196
472
628
782
784
786
830
770
710
732
756
794
796
800
804
808
810
816
824
828
832
834
838
842
842
844
844
844
842
840
840
838
836
834
832
828
826
826
824
824
826
828
830
834
838
848
854
860
866
872
878
886
902
908
916
922
930
942
946
952
956
962
966
972
980
984
990
994
1000
1012
1018
1026
1034
1042
1052
1062
1084
1096
1108
1120
1134
1160
1172
1186
1198
1212
1236
1246
1256
1264
1274
1280
1288
1298
1302
1306
1306
1308
1308
1306
1306
1302
1298
1294
1290
1278
1270
1264
1256
1248
1228
1216
1206
1192
1178
1150
1154
1160
1142
1124
1102
1082
1034
1006
980
966
952
878
838
798
758
720
682
642
568
536
502
474
444
392
380
366
342
318
276
264
250
238
224
214
204
186
180
174
170
166
164
166
166
170
172
178
184
196
204
212
220
228
246
256
264
272
280
296
304
310
316
322
328
332
338
342
344
346
346
344
344
342
340
338
336
332
326
324
320
318
316
312
312
310
310
308
310
310
314
316
318
322
326
332
336
340
344
346
350
352
352
352
352
352
350
346
344
340
338
334
328
328
326
326
326
328
330
338
344
350
360
368
386
398
408
420
430
452
462
470
478
484
490
494
500
500
500
500
498
490
486
482
478
472
468
462
454
452
448
448
446
446
448
448
450
452
458
462
464
466
468
472
474
478
480
480
480
480
478
476
474
474
472
470
468
464
462
460
460
458
458
460
460
462
464
468
472
474
478
482
486
488
496
500
502
504
506
508
508
508
508
506
502
498
490
484
476
470
462
444
434
424
414
404
394
382
362
354
344
336
326
314
310
304
302
300
302
306
310
316
322
332
342
370
360
350
374
396
446
452
458
494
530
576
622
732
744
756
830
904
1102
1218
1336
1460
1584
1814
2010
2206
2302
2400
2406
2412
2194
2074
1956
1582
1208
348
82
-185
-337
-491
-495
-501
-311
-181
-51
62
176
294
362
428
396
364
416
404
390
404
418
428
436
444
452
460
468
476
496
508
518
530
540
554
566
594
610
624
638
652
682
696
710
722
734
756
766
776
784
792
798
804
812
814
818
818
820
820
820
820
820
820
820
822
824
826
828
832
836
844
850
858
866
874
882
892
912
922
932
944
956
980
992
1004
1016
1030
1056
1070
1084
1098
1112
1126
1140
1170
1184
1200
1216
1232
1262
1278
1294
1308
1322
1336
1350
1372
1380
1390
1396
1402
1412
1412
1414
1410
1406
1386
1402
1418
1398
1378
1390
1402
1332
1288
1246
1196
1148
1040
980
922
864
808
754
700
590
556
522
482
442
442
420
398
402
404
386
382
376
374
372
372
370
372
374
374
376
376
376
376
376
374
372
370
366
358
354
348
344
338
330
326
322
320
318
318
320
322
328
332
340
346
362
372
382
394
404
426
436
446
456
464
472
478
488
492
494
496
496
492
488
484
480
474
470
464
454
450
444
442
438
434
434
434
436
438
448
454
460
468
474
482
490
506
514
520
528
534
544
546
548
550
550
550
548
540
534
528
522
514
498
490
480
472
462
444
436
428
420
412
406
398
386
382
376
372
368
360
358
356
354
352
352
350
350
350
350
352
354
358
362
364
368
372
382
388
394
402
408
416
424
442
452
460
470
480
500
510
520
530
540
548
556
572
580
586
592
596
602
604
606
606
604
600
598
594
590
586
582
578
568
564
558
554
548
540
538
534
534
532
532
530
530
532
532
534
534
540
544
546
550
554
558
562
572
576
580
586
590
598
602
604
606
608
608
608
606
604
600
596
590
578
570
562
554
544
526
518
510
504
496
488
480
474
478
480
486
490
448
468
488
460
430
522
586
648
664
678
786
896
1144
1272
1400
1512
1624
2012
2092
2172
2160
2148
2022
1898
1626
1240
856
422
-11
-495
-609
-723
-673
-623
-313
-133
46
154
262
368
472
502
502
500
524
546
486
490
492
492
490
488
486
484
482
480
480
480
482
484
484
488
490
496
500
504
510
514
520
526
536
542
548
554
560
570
576
580
586
590
596
600
610
616
622
628
634
650
658
666
676
684
694
704
726
736
748
760
772
800
814
828
842
856
886
900
916
930
946
960
976
1008
1022
1038
1054
1072
1104
1108
1112
1128
1146
1164
1184
1224
1248
1274
1288
1304
1330
1340
1350
1358
1366
1372
1372
1372
1368
1364
1354
1344
1316
1330
1344
1318
1294
1264
1226
1190
1152
1116
1078
1042
972
960
950
926
902
860
842
824
808
794
766
752
738
726
714
702
688
662
650
638
626
612
588
576
562
550
536
522
508
482
468
454
440
426
400
386
372
360
346
320
308
294
282
270
258
246
226
216
206
198
190
176
172
166
164
160
160
160
162
166
168
174
178
192
202
210
222
232
244
254
280
294
306
320
332
358
372
384
396
406
428
438
448
456
464
472
480
492
498
502
508
512
520
524
526
530
534
538
540
544
546
548
550
552
552
552
550
548
546
540
534
528
522
516
508
498
480
470
460
450
438
416
406
394
386
376
368
360
348
344
338
336
334
334
336
338
342
346
356
362
368
376
382
388
394
404
410
414
418
420
424
426
426
426
424
424
422
418
416
414
412
410
406
406
404
404
402
402
404
406
408
410
412
414
422
426
428
434
438
446
450
454
458
460
464
466
470
472
472
472
472
468
466
462
458
454
450
446
436
432
426
424
420
416
416
414
416
418
424
430
436
444
450
460
468
488
498
506
516
526
542
550
558
564
568
572
576
580
582
584
586
586
582
582
582
582
580
590
604
616
606
596
570
544
616
596
574
654
732
936
1050
1166
1296
1426
1572
1720
1914
2104
2294
2518
2744
2908
2836
2764
2550
2336
1764
1478
1194
974
756
624
492
384
388
390
486
580
616
620
622
640
656
678
700
744
754
764
774
786
808
816
826
832
840
852
856
860
862
866
868
870
874
876
878
880
882
886
888
890
892
896
898
902
910
914
920
924
928
940
944
950
956
964
970
976
992
998
1006
1014
1024
1042
1050
1060
1070
1080
1100
1110
1122
1132
1142
1152
1162
1180
1190
1200
1208
1216
1234
1240
1248
1256
1264
1270
1276
1288
1294
1300
1306
1312
1322
1326
1330
1332
1336
1342
1342
1344
1344
1346
1346
1346
1342
1340
1338
1336
1334
1326
1322
1318
1312
1308
1302
1296
1282
1272
1264
1256
1250
1230
1216
1202
1208
1214
1178
1152
1128
1138
1150
1110
1070
978
930
884
810
738
606
594
582
542
502
470
436
380
356
330
314
296
244
222
198
178
156
134
120
106
96
84
76
66
54
50
46
44
42
42
44
46
50
54
60
66
80
88
96
106
116
138
150
160
172
184
196
208
230
240
250
260
268
280
284
286
288
288
282
276
270
262
252
242
230
206
194
180
168
154
132
122
112
106
98
94
90
88
90
92
96
100
112
120
126
134
142
160
168
174
182
188
194
200
210
214
218
222
224
228
232
234
236
238
240
242
246
248
250
254
256
262
264
266
270
272
274
276
278
280
280
280
280
280
280
278
278
276
272
270
266
262
258
256
252
244
240
236
232
228
220
218
216
214
212
210
212
212
216
218
224
228
240
248
254
264
272
292
304
314
326
336
348
360
382
394
404
414
424
442
452
460
468
474
482
488
500
506
512
516
520
528
532
534
536
538
540
540
538
536
534
530
526
514
506
498
488
478
456
442
428
414
400
384
368
336
320
304
288
272
240
228
214
202
190
170
164
158
156
152
154
154
160
168
176
156
134
170
194
216
248
278
286
292
386
446
506
548
590
728
752
776
840
904
1088
1196
1306
1424
1542
1638
1736
2166
2246
2326
2304
2282
2256
1962
1670
1226
782
374
-35
-413
-471
-531
-429
-329
54
90
126
170
214
312
350
388
406
424
400
374
418
432
444
454
462
474
478
482
490
496
500
504
512
514
516
518
518
520
520
520
520
520
520
520
520
520
520
522
524
528
530
532
536
540
546
550
554
558
560
564
566
570
572
574
576
576
578
580
580
582
582
586
588
594
600
606
614
622
642
658
672
688
702
688
710
732
758
784
810
838
916
932
948
974
1000
1046
1068
1090
1100
1110
1122
1136
1158
1166
1174
1178
1184
1188
1186
1186
1182
1178
1162
1152
1142
1130
1118
1102
1088
1098
1076
1056
1032
1008
956
934
914
882
852
818
786
720
686
650
612
574
498
460
420
382
344
270
238
204
202
200
180
160
148
138
126
120
112
102
100
96
96
94
96
96
102
106
110
116
122
136
144
152
162
172
182
192
214
226
238
250
262
286
298
308
318
328
346
354
360
366
370
372
374
376
376
374
372
368
358
352
346
340
334
328
320
308
304
298
294
288
282
280
278
278
276
278
280
280
284
286
290
292
298
302
306
310
314
324
330
334
340
344
350
356
368
374
380
386
392
402
408
412
416
420
426
428
430
430
428
426
424
414
408
402
394
386
368
358
348
338
328
318
308
292
286
280
276
272
270
272
274
280
284
302
312
322
336
348
362
376
406
422
436
450
464
488
500
510
520
528
536
542
552
556
558
560
560
560
560
558
558
556
556
554
554
556
556
558
560
568
574
578
586
592
606
614
622
632
640
648
656
670
676
682
688
692
698
700
700
700
698
696
694
684
678
672
666
658
642
634
624
616
606
588
580
570
562
552
546
538
522
516
510
504
498
488
484
478
474
470
468
464
462
462
460
462
464
468
474
478
488
496
520
510
498
520
540
528
516
598
654
708
722
736
888
988
1090
1208
1326
1448
1572
1772
1988
2204
2294
2384
2342
2348
2354
2012
1672
954
544
132
-73
-281
-311
-343
-141
0
142
262
380
396
434
470
480
488
518
546
548
554
558
568
576
586
592
596
598
598
600
602
602
602
602
602
600
598
598
598
598
598
600
602
602
604
606
610
612
618
622
626
630
634
642
646
650
654
658
662
666
674
678
682
686
690
700
706
712
720
726
740
750
762
772
784
798
812
842
858
876
878
882
926
946
968
990
1012
1032
1052
1084
1098
1112
1124
1136
1156
1162
1170
1176
1182
1188
1188
1190
1190
1190
1188
1186
1180
1174
1170
1164
1160
1146
1138
1132
1124
1116
1106
1098
1078
1066
1056
1042
1030
1004
988
974
958
942
938
918
900
880
860
838
818
774
752
710
690
648
628
608
588
566
546
524
482
460
438
416
392
348
326
302
288
272
258
244
222
214
206
200
194
192
194
194
198
202
214
224
232
242
250
260
270
292
302
312
322
330
344
350
356
360
364
368
370
370
370
368
366
362
352
348
342
336
328
316
310
302
296
288
284
278
268
264
260
258
256
254
256
256
258
260
264
266
274
278
282
286
290
298
302
304
306
308
310
310
308
308
306
304
300
292
288
284
280
274
264
260
254
250
244
242
238
232
232
230
230
230
232
234
236
240
242
252
256
260
266
272
278
282
294
300
304
310
314
324
328
332
336
340
344
348
354
358
360
364
366
372
376
378
382
386
390
392
400
406
410
414
418
428
434
438
444
448
456
462
466
470
474
478
480
484
486
488
488
488
486
484
482
478
474
470
464
452
446
438
430
422
402
392
382
372
362
340
330
318
308
296
286
276
256
248
238
230
220
206
200
192
188
182
178
172
166
164
160
160
158
158
160
162
166
170
176
182
188
200
212
224
236
222
244
264
248
230
312
368
424
432
440
530
618
842
972
1102
1252
1402
1666
1772
1880
2168
2458
2380
2312
2244
2190
2136
1786
1436
576
234
-109
-325
-543
-605
-495
-385
-255
-127
-113
-99
-23
20
64
98
130
166
168
168
192
214
234
254
298
314
328
344
358
388
402
416
430
444
468
482
494
506
518
530
540
560
570
580
590
598
614
622
628
634
640
646
652
660
664
668
672
676
684
688
692
696
700
710
716
720
726
732
738
746
762
770
778
786
796
812
820
828
836
844
850
858
870
876
882
888
894
906
912
918
924
932
946
954
962
970
980
990
1002
1024
1036
1048
1060
1074
1100
1112
1124
1136
1148
1158
1168
1184
1188
1194
1196
1198
1198
1192
1188
1178
1168
1140
1152
1166
1142
1118
1112
1108
1028
986
944
900
856
770
688
652
614
582
550
542
518
494
474
454
426
414
400
390
378
368
358
342
336
330
326
320
314
314
312
312
310
312
314
316
318
320
322
324
330
332
334
336
336
338
338
336
336
334
332
328
320
314
308
302
296
282
274
266
258
250
236
230
222
216
210
206
200
194
192
190
190
188
190
194
196
200
202
208
212
224
230
236
242
248
262
270
276
284
292
304
312
318
324
330
336
342
352
356
360
364
368
372
374
374
374
372
372
370
364
360
356
350
344
332
326
318
312
304
290
284
276
270
264
260
254
246
244
242
242
242
246
250
252
258
264
272
280
298
308
318
330
342
366
380
392
406
418
430
442
466
478
488
498
508
526
534
540
546
550
556
558
560
560
560
558
556
550
546
542
536
530
516
508
500
492
484
474
464
444
434
422
410
398
376
366
354
344
332
312
304
294
288
280
274
268
260
258
256
256
254
258
262
266
272
276
282
288
302
310
316
324
330
344
352
358
364
368
378
384
388
392
394
398
402
410
416
420
424
428
442
448
454
468
480
474
466
516
502
486
530
572
544
638
838
948
1174
1238
1302
1416
1532
1712
1892
1814
1766
1718
1456
1196
668
378
88
-97
-283
-379
-477
-505
-367
-231
-231
-231
-183
-145
-109
-69
-29
8
46
72
98
124
148
170
214
232
248
258
268
296
308
320
332
344
354
364
382
392
400
410
418
434
442
450
458
466
474
480
494
500
506
512
518
528
532
536
540
544
552
558
562
568
572
578
584
600
610
620
632
642
668
682
694
710
724
738
752
780
792
806
818
830
848
856
864
870
876
886
888
892
894
898
900
902
908
912
916
920
926
938
944
952
960
968
976
986
1002
1010
1020
1026
1034
1048
1052
1058
1060
1064
1066
1066
1066
1062
1060
1054
1050
1036
1026
1018
1006
996
970
954
940
944
948
928
910
868
844
822
796
772
722
694
666
640
612
586
560
508
484
460
438
416
376
366
354
340
326
302
292
280
272
262
256
248
236
232
226
222
218
212
210
208
206
204
204
204
204
206
208
210
212
218
222
226
230
234
246
252
256
262
268
274
278
290
294
298
302
306
314
316
318
320
320
322
322
322
322
320
320
318
316
314
312
312
312
310
310
310
310
310
312
312
314
316
316
316
316
316
316
314
314
312
310
308
302
298
294
290
286
278
276
272
270
268
266
268
268
272
274
278
282
296
304
310
320
328
346
356
364
372
380
388
394
404
408
410
412
412
410
408
404
400
394
390
384
372
368
362
356
350
342
340
336
334
332
330
330
328
330
330
330
330
332
334
334
334
334
332
332
330
330
328
328
326
322
322
320
320
318
318
320
320
322
324
328
332
336
340
344
348
352
360
364
368
372
374
378
380
380
380
380
378
376
368
364
358
352
346
332
326
318
312
304
290
284
278
274
268
266
262
258
260
260
262
264
274
280
284
292
300
314
326
352
350
348
370
390
376
410
442
486
530
558
628
696
776
858
950
1042
1234
1304
1374
1466
1558
1898
1878
1858
1844
1830
1540
1250
830
702
572
348
124
42
160
278
254
230
256
282
266
276
286
300
312
318
324
328
332
334
342
346
348
350
352
356
358
364
368
372
376
380
392
398
404
412
420
428
436
454
464
472
482
492
510
520
528
536
544
560
568
574
582
588
594
600
610
616
620
626
630
638
642
644
648
650
654
656
660
662
664
666
668
672
676
678
682
686
696
704
710
718
726
736
746
770
784
800
814
830
864
880
898
914
930
946
964
994
1006
1020
1032
1044
1062
1068
1076
1080
1086
1092
1090
1090
1088
1086
1080
1076
1060
1050
1040
1028
1016
986
992
1000
980
962
938
914
862
844
828
790
754
676
638
598
562
524
490
454
390
362
332
324
314
270
250
230
218
206
180
170
158
148
138
130
120
106
100
94
90
84
78
76
72
70
68
68
68
68
70
70
72
74
80
84
86
92
96
106
112
116
122
128
134
140
154
162
168
176
182
196
204
212
220
228
236
242
256
264
272
278
284
298
304
308
312
316
324
328
330
332
334
336
336
336
336
336
336
336
334
334
334
334
332
332
330
328
328
326
324
322
320
318
314
312
310
304
302
298
296
292
290
286
280
278
276
274
272
268
266
264
264
262
262
260
258
258
258
258
258
258
258
258
260
260
262
262
264
266
268
270
272
278
282
284
288
292
302
308
314
322
328
336
344
360
370
380
392
402
426
438
450
462
474
486
498
520
530
540
548
556
570
574
578
580
582
582
580
578
576
572
566
560
546
538
530
522
512
494
484
474
464
454
444
434
414
406
396
386
376
358
350
342
334
326
310
304
296
290
284
278
272
260
256
250
246
242
234
230
226
224
220
218
216
212
212
212
214
214
218
222
226
232
238
252
264
274
268
260
280
300
300
340
380
372
364
464
546
628
740
852
980
1108
1370
1502
1636
1834
2034
2138
2220
2302
2126
1950
1660
1372
672
398
124
-61
-249
-373
-145
80
72
62
128
162
196
244
292
332
372
302
316
330
342
352
372
378
384
388
390
396
402
416
422
428
434
440
452
458
464
470
476
488
494
500
504
508
512
516
524
528
530
534
536
540
544
546
550
554
558
560
568
572
576
580
584
592
596
600
604
606
614
618
620
624
628
632
636
644
650
656
664
670
686
696
706
718
742
756
786
786
788
808
828
870
892
914
936
960
1002
1018
1036
1050
1064
1076
1090
1108
1116
1124
1128
1132
1136
1134
1134
1130
1126
1120
1116
1100
1090
1082
1070
1060
1038
1024
1012
996
982
966
952
920
918
916
898
882
844
824
804
782
762
722
702
680
660
640
622
602
568
552
536
522
508
482
472
460
450
438
428
418
402
394
386
380
372
360
356
350
346
342
336
334
330
330
328
328
326
324
324
324
324
324
324
324
322
322
320
318
316
310
308
304
300
296
288
284
280
278
274
270
270
268
268
268
270
272
280
284
288
294
300
314
320
326
334
340
346
350
360
364
366
368
368
368
366
364
362
360
352
348
344
340
336
332
328
324
324
322
322
322
326
330
332
338
342
348
352
364
370
376
380
384
392
394
396
396
396
394
390
382
376
368
360
352
334
324
312
302
292
270
262
252
244
236
230
222
212
210
206
206
204
204
206
206
208
210
214
216
224
228
232
236
240
248
254
258
262
266
274
280
284
290
294
300
304
312
318
322
326
330
338
342
344
346
348
348
348
348
346
344
342
338
330
326
320
316
310
300
294
288
284
278
274
270
264
262
260
258
256
256
258
258
260
262
266
268
276
280
284
288
292
300
306
310
314
318
328
332
336
340
342
346
350
356
360
364
368
370
380
386
392
398
402
412
420
434
448
460
456
450
494
492
488
530
570
552
532
672
768
866
980
1094
1324
1418
1514
1580
1646
1988
1916
1846
1760
1674
1306
940
608
276
-57
-185
-313
-337
-139
58
48
36
64
92
178
224
270
310
348
312
330
346
360
372
392
398
404
406
408
412
416
418
420
422
424
424
426
430
432
436
440
446
450
464
472
480
490
498
520
532
542
554
564
586
598
608
618
628
638
646
660
668
674
680
684
690
692
694
696
696
696
696
694
694
692
692
690
688
688
688
690
692
698
704
708
716
722
738
762
776
790
804
820
854
858
864
886
908
930
952
994
1010
1026
1040
1054
1078
1086
1094
1098
1104
1106
1108
1104
1098
1094
1086
1078
1054
1040
1026
1030
1034
992
968
946
922
898
872
848
798
774
750
728
704
658
636
614
594
572
554
534
498
484
468
454
440
412
400
388
378
368
348
340
330
322
314
308
302
290
286
280
278
274
270
268
266
266
266
268
268
272
274
276
280
282
286
290
292
294
296
298
300
300
300
300
300
298
296
294
292
292
290
286
286
284
284
284
284
284
286
288
290
294
296
300
304
306
310
312
316
318
320
322
322
322
322
320
320
318
316
312
306
302
298
294
290
286
280
268
264
258
252
246
236
232
228
224
220
218
214
210
210
210
212
212
218
222
226
230
234
246
254
260
266
272
280
286
300
308
314
320
326
338
344
348
354
358
362
366
374
378
380
382
384
386
388
388
388
388
386
384
382
380
376
372
368
360
356
352
348
342
334
330
326
324
320
318
314
312
312
312
312
312
316
320
322
326
330
338
342
346
350
354
358
360
366
368
370
372
372
372
370
368
366
362
358
354
344
338
330
324
316
302
294
286
280
272
260
254
248
244
240
238
234
232
232
232
234
236
244
248
252
258
262
268
272
284
290
296
302
308
320
328
334
340
344
350
356
364
372
378
378
376
410
396
380
416
450
368
440
512
622
860
992
1310
1462
1616
1810
2006
2464
2490
2518
2390
2264
2010
1756
1108
820
534
316
96
-149
-181
-213
-189
-167
2
6
8
12
16
28
40
74
92
108
124
138
164
178
190
204
216
230
242
268
282
294
308
320
344
358
370
384
396
422
434
446
460
472
484
496
520
534
546
558
570
594
606
616
628
640
650
660
682
692
700
710
718
732
740
748
754
762
776
782
790
798
806
814
822
838
848
858
868
880
904
918
932
946
960
974
990
1020
1036
1052
1068
1084
1116
1132
1148
1162
1178
1192
1206
1234
1248
1262
1274
1286
1308
1318
1328
1336
1344
1354
1356
1360
1360
1362
1360
1358
1342
1330
1318
1332
1348
1306
1308
1312
1274
1238
1194
1152
1056
1018
980
916
854
722
656
588
558
526
440
404
368
340
310
314
316
292
280
266
258
248
236
234
232
232
230
230
230
236
240
244
250
256
268
274
280
286
292
304
310
314
318
322
326
328
334
336
338
340
342
346
348
350
352
354
358
360
364
368
370
374
376
380
382
384
386
386
384
384
382
380
376
372
368
358
354
348
342
336
326
322
316
314
310
308
304
302
302
302
304
306
312
316
320
326
332
338
344
356
364
370
376
382
394
400
404
408
410
416
416
416
416
414
410
406
396
390
382
374
366
346
336
326
316
304
296
286
268
262
256
252
246
244
246
246
250
254
266
276
284
294
304
316
328
350
362
374
384
394
412
420
426
432
438
442
446
452
454
454
456
456
458
460
462
464
464
470
474
476
482
486
492
498
510
518
524
532
538
552
560
566
572
578
584
588
594
598
600
602
602
602
602
602
600
598
594
592
590
588
584
582
580
576
576
574
572
570
568
566
564
562
560
558
554
546
542
538
532
526
512
504
496
488
480
472
464
448
442
434
430
424
418
418
416
418
418
430
438
444
456
466
482
498
482
504
524
550
576
600
640
678
726
772
778
786
918
1004
1092
1194
1296
1520
1626
1732
1906
2082
2266
2282
2298
2226
2156
2072
1988
1338
1174
1010
724
436
120
56
-7
6
20
112
202
248
254
258
280
300
352
384
414
442
468
516
530
542
558
572
586
598
616
622
626
630
632
632
630
628
626
622
618
612
602
598
592
588
582
576
574
572
572
570
570
572
574
578
580
584
588
596
602
606
612
618
628
634
640
648
654
662
668
686
696
706
718
728
752
766
782
798
816
816
816
860
882
906
930
954
1004
1026
1050
1072
1094
1136
1154
1172
1184
1196
1210
1224
1250
1260
1272
1280
1290
1306
1312
1318
1324
1330
1332
1336
1340
1338
1338
1336
1334
1324
1316
1310
1300
1290
1264
1272
1282
1262
1242
1216
1192
1186
1146
1106
1062
1020
928
882
836
790
744
702
660
580
546
510
510
508
462
444
426
418
410
386
378
368
358
348
340
330
316
310
302
296
288
278
274
268
264
260
258
254
252
254
254
258
260
270
278
284
294
304
326
340
352
368
382
398
412
440
456
470
484
496
520
530
540
548
556
562
566
574
576
576
576
574
568
564
560
554
548
542
534
518
510
502
494
486
468
460
452
444
436
420
414
406
400
392
386
380
368
364
358
354
348
340
336
332
330
326
324
320
316
316
314
312
310
310
310
310
312
312
316
320
322
326
328
334
338
350
358
366
374
382
400
410
420
432
442
452
462
484
494
502
510
518
532
538
542
546
548
550
550
548
546
544
540
536
526
522
516
510
504
490
484
478
474
468
464
458
450
448
444
442
440
440
440
440
442
444
448
454
458
464
468
474
480
496
506
514
524
532
552
562
572
582
590
600
608
624
632
638
644
648
654
654
654
652
650
646
642
626
616
606
594
580
548
552
556
534
512
464
440
416
392
366
346
326
296
284
272
264
254
242
242
240
244
246
252
258
278
290
302
318
334
338
360
380
402
422
464
486
506
530
554
580
606
652
650
646
678
708
796
856
916
914
912
1026
1142
1400
1532
1664
1746
1828
2346
2408
2470
2414
2360
2278
1918
1560
1122
684
356
26
-373
-393
-415
-305
-195
46
62
76
114
152
192
232
290
274
258
278
296
328
342
354
366
376
396
408
420
432
444
456
466
490
502
514
526
536
558
570
580
590
598
608
616
632
638
644
650
654
662
666
668
670
670
672
672
674
674
674
674
674
676
678
678
680
682
688
692
696
702
708
716
722
738
748
760
772
786
814
830
846
844
844
864
886
934
960
986
998
1010
1078
1116
1154
1194
1236
1322
1364
1408
1450
1492
1528
1566
1568
1572
1578
1590
1602
1614
1616
1620
1616
1612
1604
1598
1572
1584
1596
1572
1550
1540
1506
1472
1434
1396
1312
1266
1222
1176
1130
1082
1034
942
898
856
816
778
712
716
720
700
678
674
668
646
640
632
628
622
614
610
606
604
602
596
594
592
588
584
580
574
562
554
546
538
528
508
498
486
474
462
452
440
418
408
398
390
380
368
364
358
356
354
356
356
360
366
370
376
382
398
406
414
424
432
452
462
470
480
488
496
502
516
522
528
534
538
544
548
552
554
556
560
562
568
572
574
578
582
590
594
598
604
608
618
624
628
632
634
636
638
640
638
636
634
630
618
610
602
594
584
574
562
538
526
514
502
490
468
460
450
442
432
420
416
410
408
404
402
400
402
404
404
408
410
418
424
430
436
440
448
454
468
476
484
492
498
514
522
530
540
548
564
572
578
586
594
602
610
624
632
638
644
650
662
668
672
676
680
684
686
690
692
692
692
692
688
686
684
682
678
676
672
666
664
662
662
660
662
664
666
670
674
686
694
702
712
722
740
760
770
780
788
798
814
818
824
826
830
830
830
826
820
816
808
802
786
776
768
758
748
722
714
706
696
690
682
670
664
658
652
646
636
632
626
620
614
610
604
590
584
578
574
568
552
548
544
538
530
530
538
546
536
524
494
464
530
502
474
540
606
802
932
1064
1220
1376
1538
1700
2144
2360
2578
2688
2798
2750
2612
2474
2262
2050
1572
1330
1090
866
642
440
238
-81
-175
-271
-89
92
68
84
98
132
166
212
258
350
346
342
360
378
394
408
420
430
440
446
452
468
474
480
486
492
504
510
516
522
528
544
552
560
570
578
588
596
616
626
636
646
656
676
686
694
704
712
722
744
750
758
764
772
784
790
798
804
810
822
828
836
842
850
858
868
886
896
908
920
934
962
978
994
990
988
1008
1030
1076
1100
1126
1152
1178
1232
1258
1286
1310
1336
1382
1402
1424
1442
1462
1472
1482
1508
1518
1530
1538
1546
1560
1562
1566
1566
1568
1566
1566
1556
1548
1542
1532
1522
1494
1504
1514
1494
1474
1424
1414
1406
1368
1332
1292
1254
1172
1130
1090
1050
1012
938
904
870
838
806
776
746
716
692
668
658
648
620
610
600
594
586
582
576
572
572
572
574
574
580
582
584
588
590
594
596
598
598
598
598
598
594
592
588
586
582
574
572
568
564
560
558
554
550
550
548
548
548
550
554
556
560
564
574
580
586
594
600
608
616
632
642
650
658
666
680
688
696
702
708
714
720
734
738
742
748
756
760
766
770
776
786
792
798
802
808
814
820
828
832
836
836
838
840
836
834
830
826
820
814
796
786
776
764
752
718
706
694
680
658
648
636
628
618
610
602
590
586
580
576
572
568
566
564
564
562
562
562
564
566
566
568
568
570
572
572
574
574
576
576
576
576
576
576
574
574
574
574
574
572
574
576
576
578
580
584
586
596
602
608
616
622
636
646
654
664
672
680
688
706
714
722
736
748
754
760
764
768
774
776
778
778
778
778
778
774
770
768
764
760
750
744
738
732
728
722
716
704
698
692
688
684
676
674
672
672
672
674
676
678
682
684
690
694
704
710
714
720
726
734
738
744
748
752
756
760
768
772
778
780
784
796
800
804
814
824
812
830
850
834
820
858
898
858
934
1010
1112
1214
1448
1564
1682
1776
1870
1934
1998
2370
2278
2188
2074
1960
1200
1028
856
484
112
8
-97
-41
152
346
334
322
386
432
476
520
562
628
622
614
634
654
674
692
714
726
736
746
756
778
788
798
808
818
828
838
856
864
874
882
892
908
916
924
932
940
952
958
964
968
974
978
984
992
996
1002
1006
1012
1022
1028
1036
1042
1050
1058
1068
1086
1094
1104
1114
1124
1144
1154
1164
1172
1180
1196
1202
1208
1212
1218
1222
1228
1236
1240
1246
1250
1256
1268
1276
1284
1294
1304
1314
1326
1354
1368
1384
1400
1418
1428
1452
1476
1498
1522
1552
1564
1578
1588
1598
1604
1612
1616
1614
1614
1608
1602
1584
1570
1558
1568
1578
1556
1534
1484
1456
1430
1404
1380
1318
1286
1256
1224
1194
1164
1134
1094
1068
1044
1020
996
952
930
910
890
872
836
820
804
790
776
764
752
722
714
706
698
688
684
680
680
678
678
676
680
684
686
690
694
702
708
712
718
722
732
736
738
742
742
744
742
738
736
732
718
712
706
698
690
684
676
662
656
648
642
636
628
626
624
624
622
622
626
628
632
634
640
644
654
660
664
670
674
684
688
692
696
698
700
702
704
704
704
704
702
698
696
694
692
688
682
680
676
674
672
670
666
664
664
662
662
662
666
670
672
676
680
686
692
706
716
724
732
742
762
772
784
794
806
816
828
848
856
864
872
880
890
894
898
900
902
902
898
896
892
890
884
878
866
858
852
844
838
824
816
808
802
796
790
784
776
772
770
768
766
764
764
766
768
770
778
782
786
792
798
804
810
824
830
838
846
854
870
876
884
890
898
904
912
926
932
938
942
948
958
962
968
972
976
982
984
986
986
988
986
986
982
976
972
966
960
940
928
918
904
890
874
858
826
820
814
784
756
728
714
700
690
680
664
662
658
662
666
674
680
634
654
674
680
684
758
804
850
868
888
944
1000
1138
1222
1306
1400
1496
1692
1770
1850
2028
2208
2280
2352
2312
2302
2292
2020
1748
1116
764
412
244
74
-81
-43
-7
146
300
308
314
364
398
432
464
494
536
540
542
564
586
608
628
670
690
710
748
790
810
830
850
872
906
920
934
946
958
968
980
996
1002
1008
1012
1018
1022
1024
1026
1026
1026
1024
1024
1024
1022
1022
1022
1024
1026
1028
1030
1032
1036
1044
1048
1054
1058
1064
1070
1076
1090
1096
1102
1108
1116
1128
1134
1140
1146
1154
1160
1168
1182
1190
1198
1208
1218
1240
1252
1264
1278
1292
1324
1322
1322
1342
1364
1386
1410
1458
1480
1502
1516
1532
1556
1564
1574
1580
1586
1586
1588
1582
1574
1568
1554
1542
1572
1550
1528
1502
1476
1456
1438
1366
1328
1292
1254
1218
1148
1114
1082
1052
1022
968
954
942
918
894
872
852
812
796
780
766
752
728
718
708
700
690
684
676
666
664
660
660
658
656
658
660
662
664
668
672
674
678
682
686
688
694
696
698
700
702
706
708
708
710
710
712
712
712
712
712
712
712
714
714
714
714
714
714
714
714
714
714
714
712
710
710
708
706
704
700
698
696
694
692
690
688
686
686
684
684
682
684
684
684
686
688
692
694
696
698
700
704
706
710
712
712
714
716
716
716
716
716
714
712
710
708
706
704
704
702
700
702
702
704
704
708
710
720
726
734
740
754
760
766
772
778
788
790
794
794
796
794
794
788
784
780
774
768
754
746
740
734
728
722
716
706
704
702
700
698
700
702
704
708
710
718
724
728
732
736
740
746
754
758
762
764
768
774
774
776
778
780
780
780
780
778
778
776
776
774
772
772
770
770
768
766
766
764
764
764
764
764
764
766
768
770
776
778
782
786
790
794
800
808
812
818
822
826
834
836
838
838
840
840
838
836
832
830
826
824
818
814
812
810
808
804
804
806
808
810
818
826
798
818
838
828
818
902
894
886
954
1024
1118
1214
1428
1544
1660
1768
1878
1922
2152
2384
2394
2404
2276
2146
2016
1804
1594
1462
1332
1074
892
712
642
570
726
694
662
696
728
724
740
752
756
760
774
778
784
788
794
802
804
806
808
810
810
812
812
812
812
810
810
808
808
810
810
812
814
816
824
830
836
842
850
868
878
890
902
914
940
954
968
982
998
1012
1026
1056
1070
1084
1098
1112
1136
1148
1160
1170
1180
1190
1200
1218
1226
1234
1242
1252
1270
1278
1288
1298
1308
1330
1342
1354
1366
1380
1394
1408
1438
1454
1470
1486
1502
1532
1546
1562
1574
1588
1600
1612
1632
1638
1646
1650
1656
1660
1660
1660
1656
1654
1648
1644
1628
1618
1610
1598
1586
1560
1544
1528
1528
1528
1494
1474
1456
1434
1414
1390
1368
1320
1292
1266
1250
1234
1162
1126
1090
1052
1016
980
946
880
866
852
826
802
758
738
720
708
694
666
654
640
628
616
606
596
576
568
560
554
546
534
528
522
518
512
508
504
496
494
492
490
488
486
488
488
490
490
496
500
504
510
516
524
530
546
556
564
574
582
602
612
620
630
638
646
652
664
670
674
676
678
680
680
678
676
672
664
660
656
652
646
642
638
632
630
628
628
628
632
636
638
644
650
658
664
680
690
700
710
718
734
742
752
758
766
772
778
786
788
790
790
790
784
780
776
768
762
746
738
722
712
702
692
674
668
660
654
648
640
638
636
638
638
642
644
654
662
668
678
686
704
714
724
732
742
758
766
774
778
784
788
792
794
794
794
790
788
780
774
770
764
758
752
746
736
732
728
726
722
720
722
724
728
740
748
756
766
776
786
796
820
830
842
852
862
880
886
894
898
902
904
906
904
900
898
892
886
872
862
854
846
838
820
812
804
798
792
786
780
774
770
768
766
766
766
766
766
766
768
768
768
768
768
768
768
768
770
768
766
766
768
774
782
798
784
770
788
806
736
780
826
886
948
986
1090
1194
1312
1432
1558
1684
1922
1968
2016
2252
2488
2554
2494
2434
2378
2324
2032
1742
1046
656
266
62
-143
-203
-87
28
190
352
398
442
486
532
576
608
638
552
556
560
568
574
582
584
586
586
584
590
594
606
614
620
630
638
662
676
690
684
676
718
740
764
790
816
842
870
922
948
974
998
1022
1064
1068
1074
1086
1100
1110
1120
1136
1142
1148
1152
1158
1164
1166
1170
1172
1174
1178
1180
1182
1184
1186
1188
1192
1196
1200
1204
1206
1210
1218
1222
1226
1230
1236
1240
1246
1258
1264
1272
1280
1288
1308
1318
1328
1340
1352
1364
1376
1402
1416
1430
1442
1456
1482
1492
1504
1512
1522
1538
1542
1546
1546
1548
1546
1544
1532
1522
1514
1502
1490
1460
1464
1470
1448
1426
1402
1378
1324
1302
1282
1252
1224
1164
1132
1102
1070
1038
974
942
910
878
846
824
804
752
708
686
664
624
614
602
588
574
562
550
530
522
514
508
502
494
492
488
488
486
486
488
490
492
494
498
502
510
516
520
526
532
544
550
556
562
568
574
580
592
598
602
606
610
616
618
620
620
620
618
616
612
610
606
602
596
584
578
572
566
560
548
544
538
534
528
526
522
518
518
516
518
518
522
524
526
530
534
538
542
552
556
560
566
570
580
586
590
596
600
608
612
616
620
624
628
630
634
636
636
638
638
636
634
632
630
628
626
622
616
614
610
608
604
602
602
602
604
606
616
622
628
638
646
658
668
692
706
720
732
744
770
782
794
804
814
822
830
840
844
848
848
850
848
846
844
840
838
832
830
828
826
824
824
824
826
828
832
836
840
852
858
866
874
882
890
898
914
920
928
932
938
946
946
948
948
948
942
936
932
926
920
912
906
892
884
878
872
868
862
860
860
860
862
866
872
888
898
908
920
932
960
974
988
1002
1016
1030
1044
1068
1078
1088
1096
1104
1116
1118
1122
1124
1126
1126
1126
1126
1124
1124
1122
1120
1120
1118
1116
1118
1122
1146
1138
1132
1114
1098
1130
1162
1104
1172
1242
1338
1436
1666
1780
1896
1992
2088
2222
2398
2576
2500
2426
2336
2246
1616
1258
902
664
424
96
30
-35
-31
-29
94
218
248
288
326
384
440
576
638
698
718
738
826
862
898
900
902
906
912
932
938
946
948
950
946
942
940
934
928
920
914
896
886
878
870
862
848
842
838
834
830
828
828
828
830
832
836
840
852
858
866
874
882
900
908
918
928
940
952
964
990
1004
1018
1034
1050
1082
1084
1086
1106
1126
1146
1168
1210
1232
1256
1278
1300
1344
1366
1388
1408
1428
1468
1484
1500
1514
1528
1540
1554
1574
1582
1592
1598
1606
1614
1616
1618
1618
1618
1616
1614
1604
1596
1590
1580
1572
1548
1534
1520
1504
1490
1496
1476
1456
1434
1412
1388
1364
1314
1286
1260
1228
1198
1138
1108
1080
1060
1040
1014
990
940
918
896
876
856
832
