10719
10757
10783
10840
10939
11048
11133
11178
11186
11150
11046
10860
10629
10418
10277
10196
10130
10053
9992
9995
10070
10174
10251
10284
10294
10310
10329
10332
10313
10294
10303
10346
10400
10434
10438
10417
10381
10338
10299
10278
10283
10308
10337
10362
10386
10411
10425
10417
10390
10370
10378
10403
10406
10361
10288
10235
10239
10289
10343
10371
10377
10380
10391
10399
10397
10393
10403
10425
10439
10428
10403
10387
10393
10405
10399
10377
10369
10405
10477
10538
10546
10496
10428
10389
10394
10422
10441
10437
10422
10418
10434
10459
10475
10470
10449
10427
10419
10436
10480
10543
10603
10632
10616
10564
10511
10488
10502
10531
10550
10552
10553
10570
10596
10609
10604
10603
10638
10712
10785
10808
10768
10705
10677
10707
10765
10800
10785
10736
10691
10673
10679
10695
10708
10717
10721
10718
10706
10688
10666
10641
10612
10585
10568
10570
10582
10582
10552
10495
10440
10420
10444
10493
10531
10532
10500
10461
10436
10426
10414
10389
10361
10353
10372
10400
10408
10387
10365
10374
10424
10478
10490
10442
10360
10289
10255
10249
10250
10249
10257
10280
10311
10333
10339
10340
10350
10370
10385
10383
10369
10358
10361
10369
10364
10336
10297
10269
10268
10285
10299
10295
10281
10280
10309
10354
10375
10340
10259
10183
10168
10229
10330
10418
10458
10452
10420
10374
10319
10265
10240
10261
10320
10373
10383
10347
10297
10273
10287
10322
10353
10372
10381
10385
10380
10363
10340
10323
10320
10325
10330
10328
10324
10324
10335
10354
10379
10402
10418
10420
10406
10375
10332
10283
10244
10229
10249
10293
10335
10348
10328
10294
10270
10263
10266
10268
10273
10291
10323
10354
10369
10370
10368
10367
10355
10314
10250
10199
10193
10235
10290
10319
10312
10293
10289
10307
10328
10335
10325
10311
10305
10303
10296
10276
10250
10234
10243
10277
10323
10352
10345
10304
10257
10244
10282
10350
10406
10416
10381
10332
10301
10296
10303
10305
10295
10281
10273
10274
10277
10279
10280
10284
10294
10306
10311
10304
10288
10271
10262
10264
10273
10286
10306
10336
10372
10394
10381
10332
10272
10238
10250
10299
10351
10375
10364
10331
10298
10281
10289
10322
10367
10400
10399
10361
10314
10291
10309
10356
10398
10412
10400
10375
10349
10326
10312
10318
10352
10406
10451
10457
10423
10372
10334
10316
10305
10284
10255
10231
10225
10232
10242
10251
10266
10292
10324
10346
10348
10336
10322
10309
10294
10272
10251
10247
10267
10299
10323
10330
10327
10328
10338
10351
10354
10341
10312
10270
10219
10170
10142
10155
10207
10277
10334
10356
10349
10334
10337
10372
10437
10516
10591
10651
10701
10758
10837
10933
11023
11083
11099
11070
10999
10882
10716
10517
10321
10171
10089
10064
10067
10073
10070
10066
10071
10100
10157
10235
10312
10363
10374
10354
10327
10315
10326
10355
10391
10414
10405
10356
10286
10233
10229
10264
10298
10299
10276
10273
10318
10387
10422
10395
10338
10309
10330
10365
10359
10306
10260
10282
10376
10479
10515
10462
10362
10283
10267
10313
10390
10460
10497
10490
10450
10400
10366
10355
10354
10346
10328
10315
10322
10348
10379
10407
10436
10472
10509
10530
10518
10477
10430
10402
10401
10412
10414
10398
10375
10370
10398
10451
10498
10510
10482
10438
10410
10419
10457
10506
10548
10576
10586
10581
10566
10553
10552
10561
10568
10576
10601
10661
10749
10822
10840
10799
10739
10704
10704
10714
10708
10687
10671
10672
10675
10668
10655
10657
10681
10709
10715
10698
10679
10674
10677
10666
10632
10591
10562
10545
10527
10508
10503
10521
10542
10532
10477
10406
10365
10368
10387
10385
10357
10331
10332
10355
10374
10375
10363
10349
10332
10307
10288
10296
10328
10350
10326
10261
10213
10233
10314
10396
10424
10401
10366
10343
10319
10272
10225
10230
10311
10417
10458
10390
10260
10163
10157
10219
10284
10313
10323
10345
10382
10403
10379
10322
10272
10260
10284
10313
10320
10301
10274
10263
10279
10313
10346
10357
10346
10324
10309
10305
10301
10285
10261
10247
10258
10290
10322
10340
10344
10348
10362
10379
10381
10356
10311
10265
10237
10237
10257
10285
10309
10325
10336
10345
10351
10349
10336
10320
10311
10314
10324
10331
10328
10322
10323
10337
10357
10369
10358
10321
10271
10232
10225
10252
10295
10328
10338
10332
10324
10324
10328
10331
10340
10363
10397
10420
10412
10376
10339
10326
10338
10352
10353
10345
10348
10361
10363
10331
10268
10204
10174
10185
10227
10278
10326
10359
10365
10341
10301
10273
10276
10303
10328
10331
10315
10302
10308
10330
10352
10359
10347
10322
10297
10289
10309
10351
10394
10415
10410
10388
10356
10314
10264
10230
10249
10331
10433
10482
10440
10340
10262
10256
10303
10340
10326
10281
10255
10273
10316
10348
10354
10345
10336
10329
10322
10321
10339
10381
10427
10457
10458
10440
10418
10399
10390
10395
10416
10442
10450
10427
10379
10330
10297
10280
10270
10268
10281
10307
10335
10351
10354
10355
10355
10342
10309
10271
10256
10277
10314
10334
10329
10325
10350
10398
10435
10432
10397
10358
10327
10291
10238
10186
10167
10193
10239
10268
10269
10266
10281
10311
10335
10344
10351
10367
10375
10350
10287
10221
10204
10254
10348
10442
10511
10560
10608
10675
10772
10895
11021
11106
11121
11077
11019
10987
10963
10888
10722
10499
10305
10207
10195
10199
10161
10090
10038
10051
10124
10220
10301
10349
10365
10359
10345
10339
10351
10376
10397
10404
10402
10394
10379
10353
10328
10328
10363
10406
10410
10348
10255
10198
10225
10322
10428
10487
10483
10442
10397
10376
10388
10426
10469
10486
10456
10389
10319
10278
10278
10306
10346
10387
10420
10437
10431
10414
10406
10416
10430
10424
10402
10385
10395
10417
10420
10392
10364
10379
10442
10510
10531
10495
10440
10407
10402
10402
10394
10390
10409
10450
10487
10505
10515
10536
10572
10607
10621
10616
10603
10589
10571
10551
10548
10577
10627
10661
10652
10614
10593
10620
10685
10743
10760
10738
10698
10661
10633
10622
10638
10685
10739
10769
10757
10721
10698
10708
10738
10761
10763
10754
10753
10764
10772
10761
10728
10687
10657
10650
10661
10670
10656
10613
10557
10517
10510
10529
10550
10554
10543
10530
10518
10503
10480
10455
10439
10431
10415
10380
10333
10298
10290
10304
10325
10344
10363
10383
10394
10386
10367
10360
10377
10404
10419
10417
10420
10443
10473
10469
10411
10328
10277
10287
10330
10350
10323
10278
10265
10300
10352
10375
10355
10317
10298
10310
10340
10361
10363
10351
10335
10328
10331
10345
10363
10377
10388
10402
10427
10459
10482
10480
10452
10409
10366
10329
10298
10275
10270
10286
10317
10345
10354
10346
10335
10337
10358
10391
10423
10444
10444
10424
10392
10365
10359
10380
10418
10448
10446
10401
10328
10261
10239
10274
10344
10399
10404
10364
10323
10326
10375
10427
10432
10380
10309
10270
10284
10327
10361
10369
10365
10366
10373
10372
10356
10338
10340
10366
10397
10414
10413
10410
10416
10418
10394
10340
10282
10253
10265
10295
10311
10306
10299
10310
10338
10364
10371
10357
10333
10308
10290
10288
10311
10350
10377
10363
10317
10284
10307
10380
10448
10456
10404
10350
10343
10378
10399
10365
10296
10255
10284
10364
10438
10460
10433
10393
10370
10369
10375
10376
10363
10339
10310
10289
10287
10305
10333
10357
10373
10385
10389
10378
10351
10326
10333
10379
10437
10464
10440
10388
10350
10346
10365
10392
10424
10468
10515
10531
10487
10395
10303
10260
10278
10324
10357
10358
10336
10314
10315
10349
10403
10448
10449
10399
10329
10291
10310
10364
10402
10400
10378
10373
10396
10417
10409
10374
10346
10348
10371
10385
10379
10371
10383
10411
10427
10409
10363
10313
10282
10275
10286
10303
10314
10311
10299
10296
10323
10371
10402
10384
10323
10268
10267
10321
10390
10433
10455
10489
10558
10652
10745
10828
10913
11007
11090
11133
11128
11092
11042
10971
10858
10701
10528
10376
10262
10181
10131
10119
10148
10197
10230
10233
10230
10253
10305
10350
10358
10342
10341
10374
10407
10395
10331
10265
10251
10297
10359
10391
10386
10369
10359
10354
10349
10358
10399
10465
10513
10500
10431
10355
10323
10342
10380
10403
10411
10421
10436
10439
10416
10381
10368
10394
10442
10475
10474
10451
10426
10405
10378
10343
10324
10352
10429
10520
10575
10569
10520
10471
10452
10463
10481
10488
10484
10477
10472
10467
10463
10469
10492
10527
10553
10551
10521
10481
10456
10457
10480
10511
10541
10563
10569
10558
10542
10543
10574
10622
10656
10658
10641
10640
10671
10716
10736
10710
10660
10627
10632
10666
10703
10725
10737
10747
10759
10771
10782
10792
10796
10793
10790
10805
10847
10892
10887
10803
10665
10545
10508
10557
10638
10694
10707
10696
10678
10649
10601
10549
10524
10543
10582
10598
10573
10531
10510
10527
10555
10560
10531
10488
10458
10448
10442
10419
10376
10322
10278
10261
10276
10316
10362
10390
10393
10376
10355
10339
10330
10326
10332
10355
10390
10417
10418
10390
10349
10312
10289
10280
10289
10320
10365
10405
10418
10404
10384
10382
10394
10399
10381
10352
10343
10368
10406
10414
10374
10309
10270
10288
10353
10416
10436
10399
10328
10259
10225
10236
10283
10343
10389
10400
10376
10335
10302
10294
10305
10317
10315
10306
10308
10331
10365
10383
10373
10352
10354
10392
10440
10451
10405
10332
10290
10318
10396
10466
10482
10441
10378
10328
10298
10279
10263
10258
10272
10298
10319
10320
10304
10284
10269
10261
10262
10280
10316
10356
10372
10346
10289
10242
10242
10294
10365
10411
10410
10377
10345
10334
10340
10344
10333
10316
10312
10334
10363
10370
10335
10272
10219
10210
10246
10300
10341
10358
10361
10359
10346
10311
10259
10215
10205
10237
10291
10341
10373
10390
10395
10384
10353
10317
10299
10318
10359
10390
10384
10346
10298
10257
10223
10190
10170
10182
10233
10296
10335
10335
10322
10334
10374
10400
10365
10272
10177
10150
10212
10321
10407
10428
10391
10336
10299
10297
10323
10357
10379
10371
10329
10271
10224
10213
10240
10289
10338
10371
10382
10377
10370
10372
10382
10382
10359
10318
10292
10315
10384
10452
10464
10407
10323
10267
10259
10268
10256
10219
10191
10203
10248
10291
10305
10298
10297
10311
10328
10328
10314
10301
10301
10306
10299
10278
10257
10247
10249
10254
10256
10258
10260
10258
10248
10235
10233
10249
10270
10277
10265
10245
10228
10214
10200
10194
10221
10292
10388
10462
10491
10492
10513
10581
10682
10773
10828
10857
10892
10949
11016
11058
11042
10945
10771
10552
10343
10199
10140
10140
10149
10138
10112
10096
10108
10142
10183
10223
10258
10278
10275
10253
10239
10260
10308
10347
10338
10285
10229
10209
10228
10257
10275
10288
10311
10340
10348
10320
10273
10249
10270
10322
10370
10392
10394
10389
10378
10355
10325
10309
10322
10354
10377
10372
10349
10332
10333
10343
10345
10336
10325
10320
10319
10323
10339
10371
10409
10426
10405
10368
10356
10396
10463
10499
10468
10387
10308
10272
10280
10301
10316
10332
10365
10417
10461
10475
10456
10426
10410
10414
10427
10437
10450
10479
10532
10590
10621
10600
10534
10463
10438
10482
10577
10672
10722
10713
10664
10612
10584
10583
10596
10605
10603
10597
10603
10634
10681
10718
10721
10690
10657
10657
10695
10734
10736
10701
10666
10673
10719
10755
10736
10669
10600
10574
10585
10588
10551
10487
10441
10438
10462
10477
10462
10426
10393
10373
10362
10356
10357
10368
10378
10372
10348
10321
10313
10329
10350
10354
10337
10315
10302
10299
10298
10289
10275
10264
10260
10261
10265
10271
10279
10290
10304
10322
10341
10355
10350
10322
10282
10250
10237
10242
10256
10272
10288
10297
10288
10259
10225
10209
10222
10248
10260
10250
10236
10240
10265
10291
10300
10299
10302
10309
10296
10249
10187
10152
10169
10224
10274
10294
10294
10296
10307
10310
10297
10277
10269
10270
10263
10239
10219
10230
10269
10300
10289
10248
10223
10242
10284
10305
10290
10268
10270
10288
10278
10223
10162
10163
10246
10355
10407
10367
10274
10200
10182
10205
10238
10265
10291
10313
10316
10288
10246
10217
10216
10231
10240
10241
10248
10270
10295
10304
10293
10280
10285
10308
10324
10313
10272
10219
10177
10156
10159
10185
10226
10266
10282
10260
10208
10152
10125
10143
10204
10279
10335
10350
10323
10278
10239
10216
10203
10192
10191
10209
10246
10277
10273
10234
10194
10193
10241
10304
10335
10312
10250
10188
10156
10159
10185
10215
10239
10258
10277
10299
10318
10324
10310
10285
10268
10265
10263
10240
10190
10140
10127
10163
10224
10273
10288
10280
10265
10252
10237
10226
10230
10254
10282
10292
10280
10265
10269
10289
10300
10293
10286
10307
10351
10376
10343
10260
10184
10163
10201
10255
10290
10299
10299
10292
10264
10209
10149
10123
10143
10186
10218
10227
10230
10251
10283
10302
10289
10250
10203
10163
10133
10117
10126
10165
10220
10266
10279
10258
10222
10188
10166
10155
10156
10170
10195
10221
10238
10244
10245
10248
10259
10278
10307
10346
10395
10453
10525
10609
10698
10775
10828
10863
10899
10947
10989
10984
10901
10748
10564
10392
10252
10140
10052
9993
9970
9981
10011
10046
10078
10106
10128
10143
10161
10197
10258
10325
10367
10356
10295
10215
10149
10120
10129
10167
10215
10250
10256
10235
10212
10214
10249
10295
10318
10299
10249
10198
10174
10187
10230
10283
10323
10330
10300
10252
10220
10230
10283
10350
10398
10403
10367
10308
10250
10217
10218
10250
10294
10328
10342
10338
10329
10320
10309
10289
10263
10241
10240
10270
10331
10404
10461
10474
10441
10384
10341
10337
10360
10379
10372
10349
10340
10361
10402
10436
10449
10449
10453
10464
10471
10467
10456
10451
10458
10467
10469
10465
10466
10480
10504
10528
10545
10557
10573
10596
10628
10663
10695
10713
10710
10685
10650
10618
10599
10590
10589
10593
10603
10618
10635
10652
10672
10692
10696
10670
10613
10552
10519
10526
10551
10561
10541
10507
10483
10478
10480
10478
10467
10451
10423
10370
10294
10225
10196
10216
10259
10284
10277
10263
10273
10309
10339
10325
10264
10192
10155
10171
10219
10259
10268
10250
10228
10219
10220
10213
10190
10165
10166
10209
10274
10318
10306
10245
10182
10164
10203
10262
10295
10281
10238
10206
10209
10237
10262
10259
10225
10184
10160
10166
10189
10205
10204
10196
10202
10231
10269
10289
10278
10246
10215
10203
10207
10223
10251
10289
10326
10342
10325
10292
10274
10291
10332
10364
10363
10330
10282
10237
10200
10174
10160
10155
10143
10114
10081
10077
10128
10217
10297
10326
10304
10266
10247
10250
10257
10258
10264
10285
10309
10309
10274
10226
10201
10214
10251
10283
10297
10298
10293
10272
10224
10153
10089
10062
10080
10127
10176
10213
10234
10243
10246
10249
10258
10271
10283
10289
10289
10292
10296
10292
10272
10243
10222
10219
10225
10223
10207
10192
10194
10209
10220
10213
10198
10191
10194
10193
10181
10175
10198
10248
10283
10264
10194
10132
10138
10215
10305
10345
10318
10262
10224
10221
10234
10245
10255
10272
10289
10288
10255
10204
10159
10134
10125
10125
10140
10184
10258
10336
10381
10374
10327
10270
10227
10209
10214
10237
10270
10299
10312
10306
10296
10296
10312
10327
10325
10301
10264
10232
10213
10210
10221
10242
10264
10275
10263
10233
10203
10192
10202
10220
10226
10214
10193
10174
10158
10144
10133
10132
10152
10190
10229
10250
10249
10233
10216
10206
10200
10194
10189
10192
10210
10239
10270
10288
10287
10267
10238
10209
10186
10167
10151
10143
10154
10191
10247
10301
10338
10357
10377
10420
10491
10581
10671
10749
10813
10865
10904
10930
10943
10938
10897
10798
10631
10419
10211
10057
9981
9970
9995
10033
10071
10104
10127
10142
10154
10171
10194
10212
10216
10207
10198
10196
10199
10201
10210
10238
10284
10321
10313
10249
10167
10125
10157
10242
10325
10363
10353
10322
10300
10295
10301
10315
10330
10340
10329
10293
10249
10227
10246
10291
10326
10323
10290
10256
10248
10261
10272
10264
10247
10245
10272
10314
10339
10326
10286
10253
10251
10275
10300
10305
10299
10305
10333
10366
10374
10348
10317
10321
10378
10461
10519
10518
10468
10409
10376
10374
10383
10380
10359
10339
10346
10395
10469
10531
10545
10508
10453
10422
10437
10478
10511
10518
10514
10527
10560
10590
10593
10577
10575
10614
10680
10725
10713
10651
10584
10559
10586
10645
10701
10734
10738
10717
10682
10648
10631
10631
10634
10623
10590
10549
10522
10519
10527
10529
10518
10499
10487
10480
10467
10436
10390
10347
10328
10342
10374
10401
10406
10388
10358
10327
10296
10264
10243
10252
10301
10374
10427
10423
10358
10267
10200
10184
10206
10236
10249
10242
10224
10207
10196
10194
10202
10217
10232
10239
10240
10242
10250
10263
10274
10284
10290
10290
10275
10245
10216
10214
10253
10317
10370
10384
10360
10318
10275
10233
10195
10173
10181
10217
10252
10254
10220
10177
10163
10188
10230
10259
10267
10263
10263
10268
10273
10276
10288
10313
10344
10370
10381
10373
10344
10291
10224
10171
10164
10206
10262
10281
10245
10187
10157
10177
10223
10256
10261
10256
10265
10282
10283
10255
10217
10202
10221
10250
10258
10237
10211
10209
10232
10259
10273
10278
10291
10313
10322
10293
10224
10148
10104
10105
10134
10160
10169
10170
10182
10210
10247
10283
10311
10332
10340
10328
10294
10250
10218
10212
10227
10245
10249
10238
10217
10194
10172
10159
10173
10222
10291
10341
10336
10280
10219
10197
10225
10265
10275
10245
10204
10184
10194
10212
10217
10208
10201
10206
10213
10208
10194
10185
10194
10216
10234
10240
10238
10238
10240
10238
10227
10217
10220
10241
10266
10279
10273
10255
10238
10233
10240
10248
10242
10214
10175
10153
10176
10247
10331
10383
10373
10319
10260
10231
10234
10252
10274
10303
10341
10375
10382
10350
10295
10247
10227
10226
10220
10195
10161
10137
10138
10160
10189
10211
10221
10216
10200
10177
10156
10143
10145
10161
10184
10207
10220
10217
10201
10179
10160
10150
10150
10163
10192
10231
10265
10276
10258
10227
10209
10218
10241
10250
10224
10170
10115
10090
10106
10155
10216
10268
10303
10329
10364
10426
10513
10603
10676
10732
10795
10883
10985
11054
11041
10936
10767
10583
10418
10280
10166
10072
10001
9961
9960
10001
10073
10150
10198
10197
10163
10132
10133
10165
10198
10210
10205
10205
10220
10237
10239
10228
10223
10241
10274
10294
10286
10260
10239
10241
10264
10294
10316
10317
10291
10238
10178
10139
10143
10185
10240
10279
10289
10274
10246
10214
10192
10198
10239
10298
10342
10346
10320
10296
10304
10339
10376
10389
10377
10353
10328
10302
10279
10270
10286
10322
10359
10380
10385
10383
10376
10350
10302
10250
10228
10257
10318
10369
10378
10354
10332
10339
10371
10404
10420
10419
10418
10424
10436
10449
10463
10485
10518
10552
10573
10576
10570
10571
10584
10595
10581
10535
10477
10442
10453
10499
10549
10575
10578
10580
10603
10645
10686
10707
10704
10690
10681
10686
10702
10715
10712
10688
10655
10630
10621
10613
10582
10522
10456
10422
10434
10464
10474
10454
10432
10437
10456
10444
10373
10269
10197
10196
10244
10284
10285
10268
10267
10283
10284
10248
10204
10201
10256
10326
10348
10302
10228
10186
10194
10222
10230
10214
10204
10220
10252
10266
10245
10201
10169
10169
10199
10235
10258
10260
10247
10232
10225
10227
10229
10221
10207
10206
10234
10285
10326
10322
10266
10187
10125
10110
10138
10184
10224
10246
10254
10262
10275
10290
10295
10278
10248
10224
10229
10261
10291
10288
10242
10179
10137
10139
10174
10216
10246
10261
10270
10277
10274
10251
10217
10192
10204
10258
10325
10358
10330
10252
10175
10143
10163
10199
10215
10203
10192
10205
10235
10255
10250
10237
10237
10249
10247
10213
10168
10156
10197
10259
10287
10256
10189
10137
10128
10154
10187
10212
10231
10248
10259
10257
10245
10234
10235
10244
10257
10268
10275
10274
10259
10235
10220
10225
10241
10243
10215
10178
10168
10200
10252
10281
10260
10203
10143
10106
10096
10108
10138
10179
10215
10228
10215
10195
10192
10208
10228
10236
10234
10238
10252
10267
10269
10259
10253
10259
10268
10265
10247
10223
10202
10183
10162
10146
10145
10159
10171
10172
10171
10191
10239
10282
10279
10218
10136
10086
10094
10139
10186
10214
10232
10247
10261
10271
10285
10318
10360
10382
10357
10299
10258
10280
10356
10433
10454
10404
10315
10229
10169
10136
10120
10119
10131
10158
10197
10241
10278
10289
10262
10207
10156
10139
10159
10188
10196
10174
10142
10124
10130
10149
10168
10182
10194
10202
10207
10212
10224
10244
10266
10275
10266
10243
10214
10186
10163
10155
10170
10206
10244
10260
10250
10226
10208
10204
10206
10205
10204
10217
10254
10317
10404
10510
10628
10745
10842
10913
10965
11006
11030
11011
10924
10769
10575
10384
10229
10123
10060
10028
10011
10003
10006
10027
10071
10124
10170
10199
10217
10232
10238
10220
10173
10124
10111
10147
10207
10248
10255
10250
10260
10281
10282
10242
10184
10155
10179
10235
10278
10285
10269
10253
10250
10250
10248
10246
10249
10253
10247
10234
10232
10251
10280
10293
10277
10247
10230
10236
10252
10260
10261
10271
10299
10335
10361
10369
10367
10362
10354
10340
10325
10312
10299
10279
10253
10242
10264
10313
10352
10349
10311
10286
10305
10347
10361
10320
10264
10260
10332
10430
10475
10437
10361
10322
10354
10425
10478
10491
10481
10478
10487
10490
10476
10458
10454
10472
10495
10505
10502
10503
10519
10550
10585
10618
10650
10677
10687
10672
10639
10619
10635
10679
10712
10697
10634
10560
10520
10528
10562
10588
10596
10592
10585
10566
10523
10461
10405
10378
10378
10387
10394
10403
10424
10443
10433
10380
10310
10271
10284
10323
10341
10318
10282
10268
10285
10303
10292
10256
10225
10221
10237
10249
10246
10234
10221
10201
10164
10122
10105
10135
10197
10252
10268
10247
10215
10193
10185
10185
10191
10203
10214
10212
10192
10174
10182
10222
10270
10290
10269
10222
10179
10160
10166
10189
10220
10247
10256
10241
10209
10181
10175
10193
10224
10255
10280
10291
10282
10255
10220
10196
10189
10188
10177
10160
10159
10191
10241
10279
10282
10262
10245
10245
10250
10248
10248
10267
10305
10325
10291
10208
10129
10112
10164
10236
10267
10236
10176
10138
10144
10181
10220
10241
10243
10240
10242
10256
10275
10285
10272
10235
10193
10173
10188
10225
10261
10279
10279
10273
10265
10252
10231
10210
10202
10213
10231
10231
10194
10127
10065
10053
10109
10204
10274
10269
10196
10121
10110
10175
10261
10300
10269
10210
10183
10207
10251
10272
10258
10230
10211
10201
10190
10173
10164
10172
10184
10176
10144
10112
10111
10147
10196
10229
10239
10246
10263
10281
10277
10245
10207
10193
10214
10247
10261
10242
10206
10182
10182
10198
10212
10216
10220
10235
10255
10257
10225
10177
10150
10176
10243
10303
10313
10275
10234
10235
10280
10328
10332
10287
10226
10186
10183
10203
10229
10250
10263
10260
10236
10197
10166
10160
10178
10203
10222
10232
10243
10251
10247
10224
10194
10170
10157
10142
10115
10086
10080
10110
10159
10197
10206
10192
10176
10166
10155
10147
10155
10196
10256
10296
10281
10214
10141
10105
10115
10140
10149
10136
10121
10124
10149
10183
10215
10243
10269
10291
10311
10344
10414
10531
10677
10813
10907
10959
10988
11008
11005
10948
10821
10643
10454
10293
10172
10083
10019
9979
9972
9996
10041
10086
10121
10141
10151
10155
10158
10163
10170
10175
10169
10150
10128
10121
10144
10194
10245
10272
10262
10229
10199
10195
10220
10261
10298
10314
10300
10260
10212
10176
10170
10200
10248
10284
10281
10238
10180
10145
10156
10207
10267
10304
10307
10288
10269
10257
10248
10241
10241
10261
10295
10320
10308
10251
10176
10129
10141
10211
10304
10380
10409
10388
10333
10276
10246
10254
10286
10314
10318
10305
10297
10314
10347
10371
10370
10354
10352
10384
10439
10486
10503
10493
10473
10456
10439
10414
10387
10375
10392
10428
10461
10476
10479
10485
10498
10504
10493
10478
10486
10535
10606
10658
10662
10625
10586
10575
10587
10600
10602
10607
10630
10659
10663
10618
10549
10510
10537
10613
10674
10668
10592
10493
10420
10395
10403
10422
10439
10445
10434
10399
10346
10296
10272
10282
10310
10335
10341
10327
10297
10260
10228
10214
10229
10264
10294
10296
10264
10219
10188
10185
10209
10243
10267
10265
10229
10173
10125
10113
10142
10185
10205
10187
10157
10152
10183
10223
10231
10192
10140
10117
10138
10177
10196
10184
10166
10172
10207
10247
10266
10264
10262
10272
10285
10279
10244
10196
10160
10150
10158
10172
10188
10207
10228
10239
10233
10218
10216
10240
10276
10293
10273
10223
10171
10143
10142
10159
10180
10198
10213
10224
10229
10230
10226
10214
10191
10164
10146
10148
10162
10169
10154
10126
10118
10149
10210
10266
10287
10274
10243
10211
10177
10142
10118
10128
10179
10249
10297
10292
10235
10155
10091
10070
10097
10154
10210
10234
10219
10188
10176
10194
10222
10230
10207
10177
10169
10188
10209
10204
10175
10151
10160
10199
10241
10255
10231
10177
10113
10064
10056
10099
10180
10264
10314
10314
10276
10225
10179
10146
10133
10144
10176
10209
10226
10223
10217
10224
10240
10247
10233
10206
10182
10168
10155
10140
10132
10146
10178
10205
10211
10201
10199
10215
10234
10234
10215
10201
10207
10221
10221
10203
10196
10227
10285
10325
10310
10250
10192
10177
10202
10235
10249
10242
10229
10222
10226
10239
10258
10274
10272
10245
10203
10170
10165
10184
10210
10228
10238
10239
10229
10207
10185
10180
10196
10216
10214
10189
10165
10167
10193
10216
10219
10214
10221
10245
10262
10248
10207
10170
10159
10164
10160
10135
10107
10105
10138
10190
10234
10250
10237
10202
10164
10144
10151
10173
10180
10158
10129
10138
10215
10341
10462
10536
10564
10583
10628
10707
10802
10894
10964
10993
10966
10881
10760
10634
10524
10426
10329
10225
10119
10021
9944
9912
9946
10041
10154
10221
10206
10137
10073
10057
10078
10104
10116
10133
10172
10223
10256
10263
10262
10270
10274
10246
10187
10147
10175
10260
10326
10309
10220
10144
10149
10225
10301
10316
10276
10230
10213
10222
10233
10240
10246
10251
10243
10214
10181
10170
10188
10223
10257
10292
10330
10355
10334
10258
10166
10122
10159
10252
10341
10387
10398
10402
10410
10408
10387
10355
10327
10307
10285
10266
10269
10305
10355
10378
10352
10298
10260
10259
10275
10279
10269
10273
10316
10391
10460
10494
10494
10479
10464
10457
10458
10471
10489
10493
10471
10433
10413
10439
10508
10588
10648
10684
10709
10736
10755
10750
10713
10654
10589
10534
10499
10489
10503
10530
10552
10564
10571
10582
10593
10594
10580
10556
10529
10499
10466
10441
10445
10483
10527
10526
10457
10351
10271
10255
10287
10314
10306
10274
10249
10245
10251
10254
10258
10273
10291
10287
10252
10206
10181
10184
10191
10178
10157
10159
10197
10241
10244
10197
10140
10124
10161
10216
10247
10240
10214
10192
10178
10169
10171
10194
10237
10273
10276
10243
10204
10188
10204
10234
10254
10253
10233
10205
10180
10171
10187
10225
10259
10261
10225
10173
10139
10143
10176
10219
10256
10282
10293
10281
10246
10206
10185
10194
10215
10217
10186
10138
10110
10121
10158
10190
10195
10182
10177
10194
10220
10228
10208
10173
10155
10167
10201
10232
10248
10253
10260
10267
10262
10239
10214
10211
10238
10271
10280
10254
10217
10198
10204
10211
10193
10153
10119
10116
10141
10169
10181
10184
10197
10227
10257
10257
10217
10155
10103
10087
10110
10151
10182
10189
10176
10165
10178
10222
10278
10316
10319
10290
10249
10213
10185
10165
10154
10160
10182
10207
10217
10208
10195
10199
10221
10238
10223
10170
10103
10058
10055
10086
10127
10162
10190
10217
10243
10256
10247
10226
10213
10226
10257
10282
10280
10253
10221
10201
10192
10188
10186
10192
10206
10212
10192
10150
10123
10148
10226
10315
10360
10341
10287
10242
10230
10240
10251
10256
10260
10264
10262
10248
10229
10223
10239
10265
10283
10283
10269
10242
10201
10151
10118
10136
10211
10302
10348
10316
10227
10140
10100
10110
10144
10174
10187
10181
10157
10120
10087
10085
10124
10186
10238
10257
10247
10229
10215
10208
10200
10189
10175
10160
10148
10146
10165
10202
10233
10225
10173
10101
10051
10046
10076
10121
10168
10223
10289
10357
10415
10469
10537
10629
10729
10813
10871
10922
10979
11024
11006
10891
10699
10492
10329
10222
10147
10082
10030
10007
10009
10020
10026
10039
10076
10131
10172
10169
10131
10099
10113
10168
10225
10246
10228
10193
10159
10128
10101
10093
10121
10184
10246
10266
10232
10174
10136
10135
10159
10183
10201
10228
10269
10306
10304
10251
10174
10125
10134
10188
10240
10250
10217
10180
10180
10227
10292
10334
10334
10312
10301
10317
10342
10347
10315
10265
10227
10221
10238
10259
10272
10278
10279
10270
10245
10212
10197
10219
10267
10307
10311
10282
10256
10263
10300
10340
10356
10351
10348
10363
10389
10407
10404
10390
10382
10391
10416
10449
10478
10497
10500
10489
10474
10470
10485
10514
10544
10568
10583
10590
10588
10573
10553
10538
10542
10561
10580
10587
10584
10584
10591
10596
10590
10576
10569
10585
10615
10638
10634
10607
10576
10556
10545
10525
10488
10442
10407
10395
10395
10389
10360
10315
10276
10263
10279
10308
10332
10345
10352
10363
10369
10353
10310
10255
10221
10220
10231
10215
10159
10102
10098
10166
10260
10306
10269
10185
10129
10143
10201
10243
10232
10189
10160
10165
10185
10192
10182
10174
10184
10201
10205
10197
10200
10229
10266
10270
10220
10142
10085
10079
10113
10152
10175
10196
10233
10280
10312
10309
10273
10230
10197
10177
10167
10165
10179
10204
10222
10218
10192
10165
10154
10161
10175
10189
10206
10229
10247
10248
10231
10216
10222
10244
10251
10221
10166
10126
10137
10195
10257
10281
10256
10203
10152
10122
10117
10132
10164
10205
10242
10259
10251
10225
10198
10187
10200
10229
10255
10256
10227
10184
10153
10149
10165
10180
10176
10158
10145
10152
10178
10212
10238
10250
10244
10223
10197
10177
10170
10169
10162
10150
10150
10180
10234
10279
10283
10246
10201
10182
10189
10196
10182
10158
10150
10172
10205
10221
10211
10188
10170
10162
10157
10157
10168
10191
10209
10205
10182
10165
10171
10189
10194
10178
10164
10179
10222
10258
10252
10212
10176
10174
10200
10226
10234
10236
10250
10277
10297
10289
10256
10217
10188
10176
10175
10182
10194
10203
10204
10197
10195
10207
10229
10251
10268
10284
10301
10307
10290
10262
10257
10294
10347
10362
10303
10200
10119
10105
10137
10163
10156
10141
10148
10176
10190
10172
10153
10181
10260
10335
10343
10279
10200
10161
10165
10170
10154
10142
10178
10260
10325
10312
10222
10124
10088
10121
10171
10181
10147
10109
10102
10122
10141
10138
10125
10125
10144
10165
10164
10136
10100
10083
10101
10155
10234
10326
10422
10513
10586
10639
10682
10739
10825
10930
11017
11045
11004
10914
10811
10710
10600
10461
10298
10147
10043
9996
9988
9990
9994
10009
10045
10094
10138
10164
10176
10182
10187
10190
10186
10181
10180
10183
10185
10183
10186
10203
10231
10252
10250
10229
10215
10237
10297
10363
10387
10350
10276
10213
10193
10213
10237
10237
10214
10198
10213
10258
10304
10321
10294
10233
10161
10112
10111
10164
10249
10323
10347
10317
10265
10236
10245
10273
10288
10279
10262
10260
10279
10309
10342
10378
10418
10445
10436
10381
10306
10249
10234
10252
10277
10297
10319
10353
10394
10426
10435
10424
10402
10374
10342
10317
10316
10349
10400
10441
10455
10453
10460
10481
10500
10500
10486
10481
10498
10526
10540
10529
10515
10525
10569
10627
10673
10692
10688
10671
10644
10612
10588
10584
10603
10627
10634
10614
10579
10550
10542
10556
10580
10598
10594
10565
10521
10479
10451
10434
10414
10388
10371
10380
10413
10442
10440
10407
10369
10350
10347
10334
10296
10246
10214
10217
10236
10241
10219
10184
10161
10157
10164
10168
10170
10179
10205
10245
10287
10318
10325
10306
10272
10243
10241
10266
10294
10297
10260
10203
10154
10137
10153
10189
10234
10278
10307
10310
10282
10238
10200
10179
10170
10161
10143
10124
10112
10116
10139
10183
10241
10296
10321
10307
10274
10260
10277
10305
10303
10255
10192
10157
10164
10188
10192
10173
10161
10182
10227
10256
10241
10196
10163
10168
10202
10233
10241
10232
10224
10234
10259
10287
10303
10296
10263
10212
10164
10140
10142
10160
10182
10205
10231
10249
10239
10195
10145
10137
10192
10277
10329
10310
10245
10199
10213
10269
10312
10307
10264
10224
10210
10213
10215
10211
10210
10215
10214
10197
10176
10176
10209
10252
10266
10233
10177
10140
10146
10177
10195
10180
10144
10123
10138
10185
10241
10281
10296
10287
10266
10243
10224
10211
10199
10188
10183
10189
10205
10223
10230
10218
10196
10176
10169
10175
10183
10183
10166
10135
10105
10097
10125
10181
10238
10263
10245
10205
10177
10181
10206
10221
10208
10177
10155
10159
10181
10198
10195
10178
10169
10182
10213
10241
10248
10233
10209
10200
10217
10259
10303
10325
10310
10263
10208
10168
10159
10179
10216
10256
10288
10302
10292
10258
10212
10174
10158
10166
10185
10200
10202
10196
10192
10194
10196
10187
10166
10141
10133
10152
10193
10232
10243
10218
10175
10147
10158
10201
10245
10253
10216
10155
10105
10090
10102
10117
10120
10119
10138
10188
10248
10276
10244
10163
10080
10043
10066
10122
10175
10212
10250
10311
10395
10478
10538
10579
10627
10704
10800
10888
10947
10975
10977
10946
10863
10723
10551
10391
10271
10185
10108
10026
9952
9905
9892
9901
9925
9965
10026
10092
10137
10149
10144
10155
10190
10227
10239
10225
10212
10222
10241
10242
10214
10187
10194
10235
10266
10249
10191
10138
10128
10155
10183
10189
10179
10174
10176
10173
10163
10165
10203
10266
10312
10307
10252
10182
10132
10107
10099
10110
10149
10211
10268
10282
10249
10202
10184
10208
10253
10289
10309
10322
10334
10338
10324
10300
10279
10271
10273
10277
10289
10317
10355
10382
10381
10362
10350
10354
10356
10330
10275
10230
10231
10279
10335
10363
10359
10352
10363
10390
10413
10426
10444
10480
10529
10569
10581
10568
10545
10524
10508
10496
10488
10485
10485
10483
10482
10491
10523
10581
10652
10708
10720
10671
10572
10463
10402
10420
10501
10588
10630
10618
10583
10558
10544
10519
10473
10427
10406
10412
10414
10388
10345
10325
10347
10387
10396
10351
10277
10217
10195
10201
10218
10241
10275
10312
10324
10295
10237
10187
10168
10174
10178
10164
10147
10146
10164
10181
10181
10165
10151
10152
10166
10182
10189
10188
10184
10186
10201
10226
10245
10232
10175
10094
10032
10026
10077
10149
10200
10218
10212
10201
10188
10169
10150
10148
10170
10203
10218
10199
10162
10136
10142
10173
10211
10241
10260
10265
10250
10213
10163
10122
10107
10118
10140
10160
10175
10187
10194
10192
10182
10172
10170
10171
10163
10142
10126
10140
10189
10247
10278
10263
10216
10165
10126
10095
10070
10065
10102
10176
10246
10266
10223
10157
10120
10132
10163
10175
10160
10148
10168
10209
10233
10221
10197
10196
10226
10246
10214
10134
10057
10037
10080
10145
10188
10199
10199
10202
10204
10196
10181
10170
10165
10151
10122
10097
10109
10162
10218
10231
10196
10158
10165
10214
10249
10220
10132
10043
10009
10036
10092
10140
10171
10192
10202
10193
10163
10134
10126
10141
10159
10161
10153
10150
10163
10181
10195
10209
10232
10262
10273
10245
10188
10137
10115
10110
10090
10044
10002
10004
10059
10128
10165
10155
10126
10112
10122
10143
10158
10172
10194
10221
10240
10244
10247
10267
10297
10306
10264
10185
10121
10114
10159
10204
10199
10143
10079
10053
10071
10103
10114
10100
10080
10071
10074
10080
10088
10109
10149
10192
10210
10185
10128
10065
10020
10001
10003
10026
10071
10129
10176
10185
10146
10084
10040
10042
10087
10142
10169
10152
10102
10051
10031
10053
10104
10149
10156
10113
10039
9979
9975
10040
10151
10264
10341
10373
10385
10415
10482
10581
10691
10789
10862
10900
10888
10813
10679
10517
10368
10255
10172
10101
10033
9977
9941
9921
9905
9896
9915
9975
10056
10107
10097
10044
10005
10026
10095
10165
10198
10197
10187
10181
10171
10151
10138
10154
10194
10214
10176
10088
10006
9987
10033
10099
10139
10143
10136
10142
10161
10176
10179
10172
10162
10153
10146
10152
10172
10198
10208
10192
10163
10147
10153
10165
10169
10169
10186
10229
10275
10291
10271
10240
10230
10244
10253
10235
10201
10183
10198
10233
10259
10267
10268
10275
10284
10289
10290
10298
10313
10318
10292
10242
10203
10207
10254
10311
10344
10346
10333
10326
10329
10341
10358
10380
10398
10404
10400
10400
10420
10454
10481
10485
10478
10484
10516
10558
10586
10594
10600
10619
10643
10652
10639
10618
10609
10612
10603
10570
10523
10491
10483
10485
10472
10437
10396
10369
10361
10367
10381
10403
10423
10427
10405
10369
10346
10351
10371
10379
10365
10347
10347
10361
10357
10311
10237
10180
10175
10210
10243
10238
10192
10130
10078
10048
10043
10062
10102
10145
10170
10168
10155
10155
10180
10212
10224
10204
10167
10139
10136
10153
10175
10189
10195
10194
10188
10181
10180
10191
10216
10251
10286
10308
10303
10259
10174
10073
9997
9985
10040
10124
10185
10199
10181
10168
10180
10203
10209
10188
10156
10133
10124
10119
10115
10124
10159
10214
10261
10277
10266
10250
10242
10230
10196
10146
10117
10134
10184
10218
10204
10160
10138
10168
10226
10257
10231
10165
10105
10077
10074
10083
10103
10145
10201
10240
10233
10190
10149
10141
10163
10189
10199
10201
10210
10226
10231
10213
10187
10170
10167
10163
10148
10135
10145
10175
10198
10189
10157
10136
10141
10155
10146
10114
10092
10109
10149
10159
10116
10053
10036
10093
10182
10229
10204
10144
10112
10134
10183
10214
10212
10199
10197
10206
10209
10192
10163
10135
10115
10104
10104
10123
10160
10201
10229
10239
10241
10248
10257
10257
10238
10201
10154
10106
10062
10036
10044
10090
10153
10203
10221
10215
10213
10228
10253
10267
10259
10237
10217
10206
10201
10199
10200
10207
10218
10233
10252
10274
10287
10271
10218
10148
10099
10097
10133
10164
10153
10106
10061
10060
10108
10179
10240
10273
10279
10265
10233
10189
10141
10101
10076
10068
10075
10096
10124
10144
10141
10119
10105
10124
10177
10230
10242
10199
10134
10095
10107
10154
10192
10194
10162
10122
10099
10102
10126
10167
10221
10286
10352
10411
10464
10519
10586
10667
10756
10840
10907
10942
10931
10859
10728
10562
10398
10270
10183
10118
10056
9993
9946
9933
9956
9999
10050
10104
10161
10208
10220
10183
10114
10062
10071
10143
10234
10293
10297
10266
10234
10218
10210
10194
10170
10155
10162
10182
10195
10188
10169
10161
10180
10220
10257
10269
10252
10218
10184
10158
10144
10139
10143
10158
10178
10194
10198
10197
10205
10236
10285
10330
10345
10319
10269
10223
10205
10217
10244
10266
10275
10272
10268
10270
10272
10267
10251
10233
10233
10263
10311
10350
10351
10315
10266
10235
10238
10265
10299
10328
10349
10360
10358
10343
10326
10325
10344
10371
10383
10372
10352
10344
10363
10405
10454
10498
10529
10546
10553
10555
10563
10578
10593
10593
10573
10543
10525
10530
10557
10593
10624
10641
10633
10596
10536
10476
10440
10436
10450
10462
10469
10481
10503
10522
10521
10501
10481
10474
10471
10444
10383
10315
10276
10276
10292
10292
10277
10269
10278
10285
10261
10207
10164
10168
10212
10252
10259
10243
10243
10268
10285
10254
10179
10109
10093
10132
10182
10199
10182
10158
10152
10165
10180
10185
10181
10176
10174
10181
10201
10230
10248
10231
10178
10117
10088
10101
10130
10141
10124
10105
10114
10150
10178
10166
10116
10065
10051
10090
10163
10232
10261
10238
10183
10132
10119
10145
10182
10197
10181
10157
10150
10165
10184
10191
10197
10220
10261
10291
10274
10205
10120
10061
10046
10059
10074
10086
10103
10135
10176
10207
10216
10202
10176
10151
10136
10135
10147
10163
10178
10196
10221
10247
10254
10223
10161
10104
10090
10122
10162
10166
10125
10075
10062
10097
10155
10198
10209
10196
10171
10139
10098
10059
10045
10068
10116
10160
10176
10162
10138
10119
10106
10092
10081
10083
10110
10155
10193
10200
10170
10126
10103
10124
10185
10257
10301
10294
10240
10165
10100
10064
10057
10063
10073
10087
10110
10143
10172
10181
10166
10140
10128
10138
10157
10160
10137
10098
10068
10057
10058
10061
10071
10107
10177
10260
10316
10321
10283
10233
10192
10161
10130
10104
10101
10131
10176
10199
10184
10147
10122
10130
10159
10184
10191
10186
10184
10187
10190
10189
10188
10186
10171
10134
10082
10043
10041
10077
10125
10157
10163
10154
10145
10139
10130
10113
10094
10079
10072
10078
10099
10136
10176
10195
10178
10137
10099
10090
10107
10124
10118
10093
10074
10083
10116
10150
10159
10136
10095
10053
10027
10024
10048
10093
10146
10190
10222
10253
10302
10380
10474
10556
10609
10647
10705
10809
10939
11031
11017
10877
10659
10446
10296
10209
10142
10059
9962
9887
9864
9891
9939
9983
10018
10054
10093
10123
10131
10118
10105
10110
10138
10175
10199
10201
10188
10176
10176
10185
10193
10195
10188
10177
10159
10129
10087
10051
10046
10084
10150
10202
10211
10181
10151
10154
10192
10231
10241
10218
10181
10153
10137
10127
10123
10138
10177
10228
10267
10278
10268
10254
10244
10233
10216
10204
10208
10226
10234
10214
10171
10137
10139
10173
10213
10237
10250
10269
10300
10327
10328
10303
10275
10267
10279
10295
10295
10283
10272
10269
10272
10277
10290
10319
10357
10376
10353
10298
10259
10283
10372
10474
10526
10502
10442
10409
10437
10506
10564
10577
10552
10525
10519
10526
10526
10508
10486
10484
10514
10567
10622
10658
10662
10635
10588
10538
10502
10485
10475
10459
10436
10420
10421
10435
10439
10421
10389
10372
10385
10415
10425
10393
10330
10268
10236
10232
10238
10240
10235
10228
10220
10208
10189
10167
10151
10145
10145
10149
10157
10171
10190
10208
10220
10225
10221
10204
10172
10132
10101
10092
10097
10095
10078
10064
10082
10143
10215
10252
10232
10180
10146
10159
10202
10234
10232
10204
10177
10162
10148
10123
10100
10107
10161
10244
10311
10324
10280
10207
10141
10099
10085
10092
10117
10151
10180
10186
10169
10148
10146
10172
10210
10231
10220
10189
10165
10159
10164
10165
10160
10162
10183
10211
10218
10189
10139
10106
10115
10154
10190
10197
10183
10173
10181
10197
10202
10190
10177
10174
10174
10161
10134
10118
10140
10198
10257
10281
10265
10236
10224
10225
10216
10180
10130
10099
10101
10124
10141
10140
10130
10127
10136
10149
10163
10177
10190
10194
10179
10147
10119
10115
10135
10162
10176
10173
10167
10172
10190
10210
10220
10214
10188
10145
10101
10079
10093
10131
10165
10171
10155
10144
10154
10172
10171
10147
10129
10150
10207
10255
10250
10192
10130
10120
10170
10241
10275
10248
10182
10119
10089
10097
10127
10156
10170
10167
10151
10135
10121
10109
10103
10111
10143
10195
10242
10261
10255
10250
10270
10304
10315
10274
10201
10146
10142
10172
10190
10170
10131
10114
10136
10172
10184
10162
10128
10108
10102
10092
10067
10043
10042
10067
10099
10117
10121
10126
10142
10160
10168
10164
10160
10167
10185
10203
10211
10205
10184
10146
10092
10039
10011
10020
10057
10094
10110
10107
10097
10091
10089
10087
10087
10097
10125
10172
10237
10316
10401
10482
10554
10622
10702
10803
10910
10983
10984
10906
10775
10633
10503
10383
10261
10134
10016
9929
9886
9887
9920
9970
10024
10066
10084
10072
10043
10021
10033
10086
10159
10213
10220
10185
10141
10120
10125
10136
10134
10126
10138
10178
10223
10240
10220
10196
10201
10236
10260
10236
10173
10117
10109
10140
10166
10154
10112
10078
10079
10112
10156
10196
10233
10265
10277
10256
10208
10163
10147
10164
10194
10217
10226
10230
10237
10249
10264
10283
10303
10315
10310
10282
10241
10207
10195
10209
10247
10297
10339
10351
10322
10264
10208
10184
10197
10234
10273
10306
10333
10354
10365
10366
10370
10391
10420
10430
10397
10332
10278
10279
10340
10425
10492
10524
10534
10543
10562
10581
10586
10565
10521
10475
10452
10471
10521
10566
10573
10543
10513
10521
10566
10608
10614
10589
10572
10588
10622
10633
10605
10561
10537
10534
10523
10477
10405
10342
10310
10300
10289
10275
10270
10280
10286
10268
10236
10225
10262
10326
10368
10351
10288
10223
10187
10173
10160
10143
10140
10168
10217
10259
10272
10260
10238
10212
10181
10143
10109
10089
10084
10085
10083
10083
10092
10112
10133
10148
10160
10174
10193
10210
10216
10210
10200
10195
10199
10211
10227
10236
10226
10193
10152
10132
10154
10204
10248
10254
10222
10179
10151
10138
10129
10116
10110
10119
10139
10156
10167
10186
10225
10268
10276
10225
10135
10062
10050
10097
10158
10191
10193
10186
10190
10196
10184
10150
10118
10119
10154
10198
10220
10215
10209
10225
10264
10297
10297
10259
10203
10151
10114
10088
10072
10072
10097
10137
10171
10180
10164
10142
10134
10150
10182
10217
10240
10242
10215
10163
10107
10077
10095
10152
10212
10241
10229
10197
10174
10177
10200
10225
10236
10229
10207
10182
10165
10161
10158
10145
10117
10088
10081
10101
10135
10160
10166
10160
10160
10173
10194
10216
10232
10240
10227
10187
10131
10084
10069
10081
10093
10085
10073
10091
10159
10252
10323
10338
10304
10255
10217
10193
10174
10155
10148
10159
10183
10205
10213
10204
10181
10154
10137
10144
10174
10210
10229
10225
10215
10222
10248
10269
10261
10230
10204
10213
10253
10299
10326
10326
10307
10274
10228
10176
10135
10120
10126
10129
10113
10087
10074
10089
10123
10154
10168
10170
10175
10189
10207
10214
10202
10170
10134
10113
10123
10163
10212
10245
10254
10249
10236
10205
10141
10058
10005
10028
10119
10209
10225
10155
10060
10014
10038
10087
10108
10093
10081
10105
10160
10219
10266
10315
10385
10471
10550
10608
10659
10717
10780
10828
10849
10859
10878
10903
10897
10822
10673
10482
10290
10120
9980
9876
9822
9829
9887
9968
10041
10092
10124
10145
10157
10160
10151
10138
10136
10154
10193
10233
10247
10224
10180
10148
10148
10171
10186
10179
10169
10180
10216
10245
10241
10207
10177
10175
10189
10188
10165
10145
10156
10193
10219
10212
10189
10189
10225
10269
10282
10254
10213
10189
10181
10174
10159
10157
10188
10251
10322
10380
10417
10431
10406
10332
10228
10139
10109
10140
10195
10235
10259
10289
10334
10375
10381
10348
10300
10265
10250
10250
10261
10286
10320
10342
10338
10328
10348
10410
10477
10494
10441
10363
10321
10332
10362
10369
10353
10353
10396
10460
10503
10511
10513
10547
10610
10660
10662
10621
10574
10553
10553
10555
10548
10539
10537
10542
10548
10559
10585
10624
10658
10662
10633
10589
10550
10520
10487
10446
10403
10371
10352
10336
10321
10316
10335
10374
10406
10404
10361
10304
10266
10264
10289
10313
10308
10270
10213
10162
10139
10143
10157
10161
10150
10134
10130
10138
10148
10148
10139
10135
10146
10173
10206
10238
10263
10273
10258
10216
10167
10140
10154
10198
10238
10246
10221
10182
10150
10133
10131
10144
10173
10212
10245
10254
10238
10213
10198
10199
10202
10192
10163
10124
10090
10073
10077
10102
10143
10188
10213
10202
10153
10092
10057
10079
10157
10253
10318
10320
10268
10200
10157
10153
10170
10181
10174
10161
10164
10190
10225
10245
10232
10191
10141
10103
10093
10113
10148
10179
10194
10199
10208
10228
10248
10244
10207
10157
10124
10125
10144
10155
10149
10145
10166
10205
10231
10215
10168
10130
10130
10160
10183
10168
10121
10077
10065
10093
10143
10192
10222
10222
10193
10152
10125
10134
10174
10217
10238
10237
10233
10234
10226
10190
10138
10111
10141
10210
10256
10227
10136
10051
10039
10106
10201
10264
10273
10243
10202
10162
10127
10103
10102
10123
10148
10158
10151
10143
10151
10171
10188
10196
10202
10215
10229
10221
10186
10144
10131
10162
10218
10264
10280
10275
10272
10277
10272
10244
10196
10159
10159
10198
10250
10284
10285
10263
10236
10209
10175
10119
10047
9990
9987
10053
10157
10239
10253
10203
10139
10109
10125
10164
10196
10215
10234
10259
10274
10260
10215
10167
10145
10150
10159
10148
10124
10113
10133
10169
10185
10161
10111
10073
10066
10082
10093
10088
10077
10082
10106
10134
10150
10149
10142
10137
10127
10102
10074
10072
10122
10217
10316
10381
10408
10435
10496
10595
10700
10779
10831
10875
10927
10972
10977
10922
10816
10681
10532
10368
10195
10031
9905
9833
9810
9820
9853
9909
9984
10063
10123
10155
10166
10172
10182
10195
10201
10191
10163
10122
10084
10074
10107
10172
10237
10264
10245
10202
10167
10155
10158
10168
10186
10218
10256
10273
10247
10191
10146
10151
10207
10273
10305
10287
10249
10231
10253
10300
10332
10314
10247
10168
10126
10146
10212
10277
10299
10274
10230
10200
10195
10204
10220
10244
10278
10309
10318
10296
10258
10227
10211
10203
10200
10219
10274
10352
10404
10392
10332
10285
10302
10371
10425
10406
10320
10230
10197
10232
10301
10365
10408
10432
10441
10440
10437
10441
10453
10466
10476
10495
10540
10604
10650
10637
10571
10503
10485
10523
10576
10602
10600
10599
10612
10616
10584
10528
10498
10530
10600
10644
10616
10534
10456
10428
10448
10480
10498
10497
10484
10460
10423
10382
10356
10353
10359
10354
10329
10293
10259
10227
10195
10171
10172
10204
10241
10250
10217
10166
10136
10143
10167
10183
10185
10186
10200
10214
10208
10176
10139
10122
10136
10171
10203
10217
10208
10180
10150
10145
10180
10242
10296
10307
10272
10220
10177
10147
10117
10089
10090
10142
10224
10280
10269
10209
10163
10174
10226
10258
10228
10153
10088
10073
10102
10144
10177
10199
10216
10224
10216
10201
10196
10212
10238
10254
10247
10225
10200
10178
10154
10130
10119
10131
10159
10186
10200
10209
10224
10245
10257
10249
10228
10211
10207
10205
10196
10186
10196
10233
10272
10277
10232
10166
10126
10135
10176
10208
10206
10181
10160
10159
10171
10180
10178
10174
10177
10190
10199
10191
10166
10140
10131
10149
10184
10216
10230
10225
10213
10205
10201
10195
10185
10177
10183
10202
10223
10230
10218
10199
10184
10176
10167
10152
10134
10126
10137
10162
10186
10199
10197
10190
10189
10200
10216
10228
10228
10217
10201
10187
10178
10175
10181
10198
10222
10235
10222
10183
10141
10127
10156
10212
10261
10278
10261
10227
10196
10177
10177
10197
10232
10263
10270
10247
10213
10191
10192
10203
10210
10213
10227
10258
10287
10290
10259
10216
10193
10198
10217
10232
10236
10233
10220
10190
10143
10101
10091
10117
10154
10175
10180
10191
10223
10256
10250
10197
10132
10107
10137
10189
10210
10186
10145
10125
10134
10148
10144
10126
10116
10128
10153
10172
10174
10164
10149
10126
10096
10067
10062
10091
10145
10197
10227
10239
10254
10294
10363
10451
10540
10620
10693
10763
10832
10894
10934
10934
10884
10790
10668
10538
10408
10283
10168
10072
10008
9978
9970
9966
9962
9972
10009
10070
10127
10149
10133
10108
10111
10153
10206
10235
10225
10201
10195
10214
10235
10229
10193
10154
10138
10144
10154
10152
10148
10157
10181
10202
10202
10184
10169
10169
10182
10197
10219
10256
10303
10331
10311
10251
10195
10192
10245
10307
10323
10284
10225
10192
10202
10232
10252
10252
10244
10244
10259
10281
10304
10318
10316
10295
10264
10238
10233
10252
10287
10324
10355
10368
10356
10317
10270
10244
10258
10304
10354
10385
10399
10414
10437
10454
10446
10415
10386
10387
10422
10468
10500
10504
10480
10437
10384
10343
10335
10369
10432
10491
10523
10532
10540
10558
10577
10580
10562
10543
10549
10585
10631
10658
10654
10628
10604
10598
10612
10637
10656
10657
10634
10589
10532
10473
10425
10399
10398
10418
10441
10450
10439
10419
10405
10403
10404
10391
10360
10315
10267
10221
10177
10141
10123
10132
10163
10201
10230
10242
10232
10205
10173
10158
10180
10235
10300
10341
10347
10331
10310
10284
10243
10190
10154
10163
10215
10265
10270
10224
10166
10136
10137
10141
10128
10110
10110
10130
10147
10144
10133
10147
10197
10249
10259
10214
10154
10135
10177
10255
10318
10339
10323
10294
10276
10277
10295
10320
10333
10320
10280
10227
10185
10164
10162
10170
10184
10196
10199
10189
10175
10181
10218
10269
10288
10250
10173
10111
10103
10142
10186
10205
10206
10218
10246
10269
10259
10224
10199
10211
10251
10280
10271
10233
10195
10176
10175
10182
10195
10224
10265
10294
10285
10238
10182
10156
10174
10220
10260
10274
10263
10249
10250
10269
10296
10311
10298
10256
10202
10157
10139
10145
10166
10190
10215
10237
10244
10218
10155
10078
10029
10037
10094
10166
10213
10228
10225
10226
10235
10244
10244
10239
10233
10226
10214
10196
10181
10180
10193
10210
10220
10227
10235
10241
10232
10205
10180
10187
10237
10302
10336
10313
10252
10198
10186
10214
10254
10281
10281
10252
10203
10153
10135
10173
10254
10330
10350
10306
10242
10206
10216
10246
10263
10264
10265
10277
10282
10259
10208
10159
10139
10147
10164
10175
10191
10222
10256
10259
10217
10149
10103
10108
10155
10208
10241
10249
10240
10216
10177
10133
10106
10113
10149
10191
10220
10234
10234
10223
10196
10164
10143
10148
10171
10187
10179
10158
10145
10151
10162
10156
10126
10089
10067
10075
10117
10194
10300
10413
10503
10550
10568
10602
10682
10804
10928
11014
11051
11041
10978
10849
10658
10444
10268
10164
10116
10080
10031
9987
9980
10021
10081
10119
10125
10115
10116
10133
10158
10177
10191
10203
10212
10216
10221
10241
10279
10314
10310
10256
10174
10114
10105
10134
10164
10169
10164
10177
10220
10266
10280
10255
10219
10209
10231
10261
10276
10281
10302
10348
10388
10377
10302
10205
10148
10160
10210
10245
10235
10203
10189
10211
10254
10289
10304
10309
10312
10313
10308
10308
10324
10357
10385
10383
10349
10308
10285
10282
10280
10268
10260
10274
10313
10351
10361
10344
10326
10335
10372
10416
10443
10443
10421
10385
10346
10320
10326
10364
10412
10438
10429
10406
10403
10437
10489
10530
10548
10555
10571
10596
10612
10609
10593
10585
10597
10619
10631
10622
10600
10579
10572
10576
10581
10578
10562
10539
10523
10521
10530
10539
10534
10516
10496
10482
10467
10437
10386
10330
10298
10308
10349
10396
10424
10424
10400
10363
10324
10293
10279
10281
10285
10282
10272
10266
10265
10256
10222
10169
10128
10127
10162
10193
10189
10159
10147
10181
10242
10279
10263
10215
10185
10198
10232
10244
10221
10184
10162
10157
10147
10119
10095
10108
10168
10240
10280
10267
10223
10185
10170
10169
10171
10179
10209
10258
10299
10297
10238
10154
10096
10099
10157
10225
10256
10231
10170
10118
10109
10147
10203
10242
10251
10241
10237
10252
10276
10284
10257
10200
10139
10107
10121
10172
10226
10249
10227
10181
10148
10151
10185
10218
10225
10212
10204
10225
10263
10287
10272
10219
10155
10108
10091
10104
10141
10194
10250
10288
10295
10274
10244
10218
10193
10163
10140
10153
10217
10311
10377
10364
10273
10156
10078
10068
10101
10135
10144
10133
10123
10124
10138
10158
10184
10213
10242
10260
10263
10248
10219
10182
10144
10120
10120
10143
10172
10185
10181
10179
10203
10254
10307
10326
10293
10220
10140
10082
10061
10079
10123
10172
10202
10203
10183
10167
10176
10205
10232
10236
10222
10209
10216
10239
10262
10269
10259
10238
10214
10194
10189
10209
10256
10314
10355
10363
10340
10311
10291
10283
10277
10270
10270
10287
10312
10324
10304
10251
10186
10131
10096
10079
10074
10082
10105
10138
10167
10184
10189
10192
10200
10211
10213
10199
10171
10138
10113
10104
10113
10141
10180
10213
10219
10189
10141
10109
10122
10178
10245
10286
10284
10246
10187
10118
10045
9986
9972
10020
10113
10196
10223
10198
10171
10196
10284
10389
10459
10476
10473
10501
10584
10712
10849
10962
11026
11028
10965
10852
10716
10585
10468
10361
10257
10158
10074
10010
9968
9950
9964
10014
10078
10123
10125
10100
10090
10124
10191
10246
10251
10206
10141
10092
10078
10098
10142
10196
10243
10264
10252
10222
10201
10203
10223
10244
10257
10263
10267
10265
10252
10233
10221
10221
10226
10219
10195
10168
10158
10173
10206
10246
10290
10334
10363
10360
10323
10274
10246
10246
10254
10248
10229
10220
10237
10268
10287
10287
10289
10317
10360
10375
10335
10260
10205
10212
10269
10327
10350
10342
10338
10354
10378
10385
10364
10334
10319
10331
10362
10397
10428
10449
10456
10451
10441
10436
10439
10442
10439
10434
10443
10473
10512
10539
10544
10544
10558
10587
10605
10584
10529
10483
10491
10552
10620
10639
10597
10534
10507
10537
10599
10648
10658
10638
10609
10582
10553
10521
10497
10493
10512
10536
10549
10545
10528
10502
10459
10399
10335
10296
10300
10330
10350
10333
10285
10237
10217
10230
10257
10278
10284
10275
10256
10234
10218
10214
10215
10207
10184
10157
10148
10164
10186
10187
10162
10137
10143
10186
10236
10258
10248
10231
10238
10265
10281
10256
10191
10119
10076
10077
10108
10149
10188
10223
10251
10260
10236
10182
10123
10099
10130
10203
10268
10282
10244
10192
10174
10201
10241
10257
10241
10225
10235
10265
10281
10262
10227
10211
10230
10252
10233
10163
10076
10024
10032
10085
10148
10195
10215
10206
10175
10140
10131
10165
10232
10293
10311
10284
10241
10213
10208
10212
10215
10218
10229
10241
10235
10198
10145
10110
10120
10170
10230
10265
10263
10231
10190
10155
10136
10133
10142
10156
10164
10162
10153
10144
10142
10146
10153
10158
10164
10178
10201
10222
10221
10186
10128
10078
10066
10096
10144
10176
10181
10173
10176
10193
10207
10203
10189
10187
10209
10239
10246
10217
10168
10130
10118
10123
10125
10119
10114
10124
10145
10165
10176
10180
10185
10191
10189
10176
10161
10154
10155
10143
10101
10037
9991
10003
10083
10193
10278
10299
10260
10199
10158
10157
10190
10235
10270
10279
10255
10208
10157
10121
10105
10095
10077
10057
10058
10105
10193
10284
10334
10324
10274
10219
10182
10161
10147
10133
10125
10124
10124
10117
10105
10098
10107
10133
10161
10175
10170
10151
10132
10128
10152
10198
10246
10267
10244
10189
10132
10096
10083
10073
10051
10018
9988
9974
9980
10006
10050
10101
10140
10149
10130
10111
10121
10165
10214
10232
10208
10167
10144
10152
10176
10199
10225
10273
10359
10471
10582
10667
10725
10773
10830
10896
10947
10945
10859
10691
10475
10268
10116
10026
9974
9932
9892
9870
9882
9924
9977
10027
10075
10129
10187
10231
10242
10213
10162
10113
10084
10078
10084
10088
10083
10076
10076
10088
10110
10130
10143
10151
10158
10164
10165
10160
10162
10185
10228
10269
10283
10269
10244
10226
10209
10170
10106
10044
10026
10063
10121
10153
10145
10126
10132
10167
10201
10210
10201
10200
10215
10226
10211
10184
10180
10220
10277
10297
10259
10196
10170
10206
10274
10314
10300
10256
10230
10237
10256
10254
10225
10195
10192
10219
10255
10280
10293
10308
10328
10345
10348
10338
10329
10335
10351
10365
10372
10383
10411
10453
10484
10477
10433
10386
10375
10419
10500
10578
10618
10604
10546
10477
10440
10461
10535
10616
10650
10614
10541
10487
10486
10524
10557
10560
10544
10536
10539
10531
10491
10434
10397
10401
10424
10421
10375
10310
10271
10279
10313
10339
10334
10302
10255
10200
10143
10098
10085
10110
10158
10201
10220
10218
10208
10202
10195
10178
10150
10118
10095
10092
10112
10153
10201
10235
10241
10219
10183
10154
10141
10141
10145
10141
10123
10094
10065
10055
10077
10128
10184
10212
10200
10163
10139
10148
10181
10204
10189
10137
10078
10052
10080
10149
10218
10245
10214
10146
10080
10048
10051
10070
10088
10102
10117
10134
10140
10132
10122
10131
10164
10193
10188
10145
10094
10079
10114
10175
10226
10246
10244
10232
10212
10178
10130
10089
10080
10108
10151
10178
10166
10121
10069
10041
10052
10097
10152
10187
10190
10167
10139
10124
10129
10149
10173
10192
10195
10175
10138
10099
10080
10091
10126
10168
10205
10231
10241
10224
10180
10124
10088
10090
10120
10142
10133
10098
10062
10040
10028
10020
10024
10057
10112
10149
10133
10069
10017
10032
10118
10219
10268
10247
10190
10140
10109
10086
10063
10055
10077
10125
10168
10186
10185
10184
10194
10200
10188
10160
10135
10125
10124
10118
10104
10093
10093
10094
10084
10062
10049
10057
10074
10081
10070
10066
10096
10161
10222
10240
10212
10175
10166
10191
10223
10235
10223
10204
10194
10191
10189
10188
10191
10198
10201
10195
10185
10183
10185
10178
10151
10111
10082
10074
10074
10061
10036
10024
10045
10092
10129
10131
10108
10089
10091
10100
10095
10086
10106
10174
10262
10308
10277
10196
10128
10116
10142
10156
10130
10080
10051
10063
10101
10133
10140
10127
10104
10075
10037
9998
9974
9981
10019
10074
10133
10190
10242
10292
10339
10391
10455
10537
10631
10728
10822
10904
10959
10966
10913
10809
10684
10566
10455
10335
10193
10043
9919
9852
9850
9893
9955
10014
10054
10071
10070
10073
10099
10152
10206
10228
10201
10144
10097
10087
10115
10162
10205
10232
10236
10212
10160
10095
10046
10042
10088
10158
10215
10229
10196
10141
10094
10079
10099
10138
10178
10203
10210
10203
10191
10186
10198
10232
10274
10303
10296
10253
10203
10180
10197
10238
10267
10263
10235
10215
10225
10263
10305
10326
10314
10276
10228
10191
10181
10201
10235
10258
10251
10218
10185
10183
10219
10272
10309
10318
10310
10305
10314
10322
10316
10298
10295
10332
10407
10485
10524
10511
10465
10419
10389
10367
10340
10320
10332
10392
10480
10551
10568
10536
10489
10465
10474
10501
10527
10548
10566
10580
10585
10577
10563
10554
10558
10570
10580
10581
10569
10545
10511
10480
10467
10476
10488
10476
10425
10356
10309
10309
10341
10368
10360
10319
10266
10222
10195
10188
10204
10241
10278
10286
10256
10214
10199
10221
10250
10240
10184
10119
10091
10106
10128
10121
10092
10082
10117
10176
10206
10177
10109
10055
10045
10069
10098
10116
10131
10152
10176
10191
10195
10201
10216
10228
10214
10168
10111
10074
10070
10082
10090
10091
10105
10141
10185
10209
10206
10194
10199
10221
10231
10204
10149
10106
10107
10144
10173
10156
10092
10022
9993
10027
10106
10188
10235
10233
10191
10139
10106
10104
10127
10154
10169
10170
10164
10160
10160
10166
10176
10185
10186
10172
10147
10127
10128
10149
10170
10168
10144
10121
10123
10155
10193
10208
10191
10156
10128
10123
10139
10165
10190
10203
10201
10183
10157
10134
10119
10111
10106
10104
10110
10119
10116
10090
10050
10026
10048
10118
10200
10240
10213
10138
10064
10036
10061
10111
10152
10165
10156
10144
10137
10134
10126
10107
10083
10063
10054
10058
10072
10097
10127
10156
10173
10174
10168
10164
10164
10160
10144
10126
10125
10151
10194
10225
10223
10194
10158
10134
10121
10108
10092
10085
10096
10120
10143
10157
10165
10178
10196
10209
10209
10199
10195
10199
10204
10198
10183
10172
10177
10196
10214
10220
10213
10199
10179
10153
10125
10108
10112
10134
10156
10159
10141
10111
10080
10057
10045
10046
10062
10091
10121
10139
10135
10116
10095
10088
10102
10129
10153
10159
10149
10142
10155
10187
10210
10195
10144
10083
10045
10035
10036
10037
10043
10068
10103
10121
10104
10074
10075
10131
10217
10289
10333
10379
10465
10588
10705
10778
10815
10851
10900
10928
10887
10772
10627
10501
10405
10306
10177
10034
9918
9859
9853
9876
9917
9973
10038
10094
10128
10141
10145
10136
10099
10032
9967
9950
9997
10070
10109
10092
10055
10055
10106
10172
10206
10196
10170
10158
10160
10154
10135
10121
10136
10184
10235
10258
10239
10191
10139
10108
10113
10149
10197
10224
10213
10178
10154
10171
10226
10283
10308
10290
10250
10213
10195
10200
10221
10244
10252
10229
10175
10113
10074
10079
10125
10189
10248
10282
10287
10268
10248
10248
10276
10309
10320
10298
10267
10263
10296
10339
10354
10335
10310
10313
10344
10372
10370
10346
10331
10343
10371
10390
10389
10384
10390
10409
10432
10452
10476
10502
10516
10498
10447
10396
10382
10415
10473
10520
10538
10536
10535
10544
10558
10570
10577
10584
10598
10616
10627
10616
10577
10520
10473
10460
10484
10515
10518
10482
10431
10398
10393
10394
10371
10321
10269
10239
10234
10232
10221
10202
10188
10183
10178
10167
10154
10145
10137
10125
10114
10127
10176
10243
10285
10269
10202
10130
10089
10081
10083
10086
10103
10148
10212
10257
10251
10192
10111
10047
10023
10049
10119
10207
10274
10283
10233
10161
10121
10130
10165
10184
10173
10151
10145
10163
10187
10203
10211
10215
10207
10176
10129
10095
10098
10130
10154
10143
10106
10084
10101
10144
10180
10193
10194
10204
10226
10246
10255
10255
10252
10243
10223
10197
10178
10168
10145
10090
10018
9984
10036
10158
10271
10301
10241
10160
10128
10160
10204
10208
10167
10119
10099
10111
10134
10153
10169
10188
10203
10201
10176
10146
10132
10146
10182
10224
10249
10241
10197
10134
10088
10085
10122
10166
10185
10175
10157
10156
10167
10171
10163
10159
10178
10217
10242
10227
10178
10130
10114
10131
10160
10181
10188
10182
10162
10129
10098
10093
10122
10165
10187
10170
10131
10103
10103
10120
10135
10140
10145
10155
10165
10165
10159
10164
10191
10225
10241
10223
10187
10161
10160
10175
10183
10175
10158
10150
10157
10174
10191
10204
10218
10230
10235
10225
10203
10179
10168
10172
10184
10193
10195
10195
10201
10215
10225
10218
10193
10163
10144
10144
10156
10167
10170
10165
10157
10144
10128
10115
10117
10136
10160
10174
10172
10163
10162
10171
10179
10172
10150
10120
10094
10077
10074
10089
10121
10161
10190
10196
10185
10173
10162
10142
10100
10049
10021
10042
10100
10150
10158
10131
10108
10123
10175
10239
10294
10347
10417
10511
10612
10697
10760
10817
10881
10943
10967
10916
10778
10584
10394
10258
10192
10163
10123
10049
9961
9900
9893
9929
9973
10006
10036
10080
10135
10175
10175
10140
10102
10088
10102
10122
10128
10122
10119
10129
10150
10169
10176
10170
10157
10149
10160
10192
10233
10252
10233
10188
10154
10167
10218
10267
10271
10223
10158
10114
10105
10119
10139
10159
10183
10208
10225
10228
10224
10231
10255
10282
10295
10285
10259
10231
10212
10201
10196
10193
10192
10189
10184
10177
10174
10180
10198
10228
10268
10311
10344
10351
10330
10298
10284
10309
10360
10401
10404
10368
10326
10311
10327
10350
10354
10337
10323
10333
10364
10388
10388
10375
10380
10417
10463
10477
10443
10395
10389
10449
10542
10602
10590
10525
10464
10447
10472
10509
10531
10538
10540
10541
10536
10524
10519
10530
10553
10569
10563
10542
10521
10504
10479
10432
10371
10328
10331
10377
10428
10442
10398
10318
10243
10205
10210
10231
10240
10223
10191
10168
10167
10177
10181
10173
10165
10172
10191
10199
10179
10139
10111
10116
10144
10168
10171
10160
10153
10152
10147
10131
10117
10123
10151
10176
10177
10157
10144
10159
10194
10224
10234
10225
10203
10167
10117
10070
10061
10109
10189
10247
10245
10198
10153
10145
10164
10176
10169
10159
10166
10186
10189
10158
10110
10079
10083
10113
10142
10161
10178
10197
10208
10201
10178
10161
10165
10181
10183
10160
10127
10115
10135
10168
10185
10172
10143
10121
10114
10114
10115
10120
10138
10170
10200
10212
10203
10193
10203
10233
10263
10263
10223
10159
10101
10074
10085
10119
10158
10184
10190
10179
10161
10151
10156
10177
10204
10223
10218
10181
10116
10045
10005
10024
10103
10201
10266
10266
10214
10156
10125
10125
10136
10151
10178
10226
10273
10283
10237
10162
10110
10108
10135
10143
10115
10075
10060
10077
10100
10104
10100
10117
10166
10221
10241
10216
10176
10156
10166
10184
10191
10189
10191
10198
10197
10179
10158
10159
10191
10231
10248
10230
10194
10166
10159
10166
10174
10176
10172
10168
10165
10164
10168
10180
10199
10223
10247
10261
10249
10205
10149
10117
10136
10195
10243
10240
10189
10138
10130
10166
10210
10225
10208
10183
10167
10159
10150
10144
10151
10169
10176
10154
10113
10084
10090
10119
10141
10140
10132
10142
10171
10194
10186
10149
10113
10106
10124
10146
10151
10141
10134
10141
10155
10160
10148
10130
10127
10158
10218
10279
10313
10315
10312
10346
10434
10561
10692
10797
10871
10913
10913
10859
10763
10657
10571
10497
10397
10247
10072
9942
9907
9955
10021
10046
10021
9984
9977
10011
10071
10135
10186
10218
10226
10219
10211
10214
10225
10226
10208
10182
10166
10164
10161
10142
10115
10106
10131
10180
10228
10253
10252
10227
10181
10119
10065
10047
10076
10131
10174
10189
10193
10206
10230
10243
10232
10210
10202
10215
10231
10232
10224
10235
10274
10316
10329
10308
10279
10270
10274
10262
10219
10167
10144
10168
10217
10258
10275
10279
10288
10307
10331
10354
10371
10377
10363
10328
10287
10262
10263
10279
10290
10292
10296
10317
10353
10392
10420
10435
10441
10440
10435
10434
10445
10465
10487
10501
10510
10517
10519
10508
10484
10470
10495
10559
10624
10644
10610
10563
10548
10572
10596
10579
10526
10476
10464
10487
10521
10553
10589
10631
10658
10641
10581
10516
10483
10485
10485
10451
10389
10338
10326
10341
10354
10347
10330
10322
10327
10334
10335
10335
10339
10337
10306
10232
10136
10062
10049
10102
10188
10260
10285
10256
10198
10145
10121
10122
10130
10136
10147
10180
10229
10267
10261
10214
10162
10149
10182
10229
10247
10220
10175
10145
10147
10170
10196
10215
10225
10226
10215
10198
10189
10202
10233
10261
10263
10237
10198
10170
10164
10171
10179
10184
10193
10216
10254
10291
10299
10265
10200
10136
10112
10138
10193
10240
10252
10232
10202
10184
10185
10198
10216
10232
10240
10231
10198
10149
10107
10097
10126
10174
10215
10231
10228
10224
10227
10227
10205
10160
10115
10105
10146
10215
10268
10277
10251
10224
10223
10241
10252
10237
10209
10191
10192
10198
10185
10146
10101
10080
10098
10150
10212
10259
10269
10232
10167
10111
10102
10149
10221
10267
10258
10208
10158
10141
10160
10194
10220
10230
10230
10223
10212
10195
10179
10170
10176
10196
10225
10248
10248
10213
10150
10085
10055
10076
10140
10218
10274
10289
10262
10213
10171
10162
10191
10231
10244
10214
10170
10160
10207
10278
10311
10265
10167
10092
10099
10181
10273
10306
10260
10176
10116
10120
10175
10233
10253
10231
10202
10209
10262
10323
10343
10302
10231
10183
10183
10215
10247
10261
10264
10264
10254
10223
10177
10144
10143
10161
10169
10157
10145
10161
10197
10210
10174
10110
10072
10090
10137
10156
10127
10087
10090
10150
10224
10261
10245
10205
10168
10139
10113
10094
10103
10143
10187
10198
10173
10146
10151
10188
10216
10203
10158
10118
10111
10131
10157
10180
10217
10281
10360
10427
10470
10509
10572
10666
10770
10856
10913
10943
10937
10871
10724
10514
10296
10137
10066
10061
10071
10058
10018
9974
9954
9971
10016
10071
10120
10157
10186
10213
10238
10254
10252
10232
10205
10186
10178
10176
10168
10153
10138
10131
10133
10135
10133
10129
10133
10146
10161
10171
10174
10178
10188
10197
10197
10191
10192
10220
10271
10323
10346
10331
10291
10251
10223
10203
10186
10173
10174
10189
10209
10225
10241
10269
10314
10364
10387
10367
10311
10255
10232
10257
10314
10376
10412
10403
10351
10277
10214
10187
10203
10242
10275
10286
10283
10286
10308
10343
10371
10380
10379
10385
10404
10425
10422
10388
10337
10305
10314
10355
10397
10417
10420
10432
10473
10534
10580
10587
10559
10525
10513
10530
10561
10589
10609
10624
10632
10629
10610
10587
10575
10581
10594
10595
10572
10533
10498
10488
10506
10534
10553
10549
10527
10500
10475
10450
10413
10364
10320
10304
10326
10369
10400
10400
10372
10337
10309
10287
10267
10246
10231
10225
10217
10199
10171
10155
10165
10200
10239
10263
10267
10260
10250
10234
10209
10178
10157
10152
10159
10163
10156
10147
10145
10156
10174
10189
10195
10190
10179
10167
10162
10171
10195
10224
10242
10242
10225
10203
10188
10185
10197
10217
10232
10231
10213
10188
10175
10178
10183
10171
10139
10110
10105
10127
10156
10173
10185
10208
10243
10264
10243
10187
10143
10153
10212
10262
10248
10172
10096
10089
10163
10267
10328
10313
10246
10179
10152
10165
10192
10209
10206
10191
10176
10167
10163
10158
10153
10153
10163
10178
10192
10195
10191
10187
10187
10184
10169
10143
10117
10107
10119
10143
10166
10179
10186
10193
10203
10214
10229
10246
10258
10256
10234
10198
10164
10141
10126
10113
10110
10131
10180
10234
10253
10218
10155
10116
10131
10179
10205
10178
10118
10080
10098
10156
10204
10205
10169
10134
10131
10155
10178
10179
10160
10137
10128
10137
10157
10177
10187
10181
10168
10160
10164
10173
10166
10135
10095
10077
10102
10155
10204
10227
10230
10236
10254
10271
10270
10250
10234
10233
10240
10228
10192
10154
10142
10161
10183
10183
10166
10168
10211
10277
10315
10293
10227
10171
10164
10201
10243
10257
10242
10221
10211
10203
10184
10151
10125
10131
10167
10208
10225
10209
10180
10161
10157
10154
10136
10107
10090
10102
10140
10177
10190
10180
10168
10172
10185
10186
10162
10124
10094
10090
10109
10131
10142
10138
10130
10128
10139
10165
10202
10239
10255
10235
10183
10128
10110
10155
10254
10367
10445
10470
10461
10465
10521
10631
10762
10870
10934
10956
10946
10895
10783
10608
10400
10213
10086
10019
9983
9951
9918
9903
9922
9977
10056
10139
10201
10219
10189
10134
10098
10112
10167
10221
10240
10226
10208
10205
10204
10186
10159
10159
10209
10285
10330
10305
10226
10142
10090
10068
10063
10076
10118
10187
10246
10257
10223
10187
10192
10232
10266
10262
10238
10238
10273
10308
10290
10214
10130
10099
10133
10190
10220
10211
10190
10189
10210
10235
10248
10253
10262
10275
10277
10266
10256
10275
10334
10407
10447
10423
10347
10262
10215
10220
10256
10290
10302
10296
10290
10295
10311
10331
10348
10362
10370
10370
10362
10353
10352
10366
10395
10434
10476
10513
10531
10524
10500
10481
10485
10513
10541
10554
10556
10569
10600
10628
10626
10589
10545
10523
10523
10520
10502
10493
10528
10610
10690
10709
10652
10564
10497
10462
10431
10381
10334
10332
10385
10449
10469
10432
10376
10344
10339
10325
10277
10212
10171
10175
10201
10213
10203
10192
10207
10240
10261
10244
10197
10152
10132
10140
10166
10198
10230
10253
10254
10225
10179
10142
10135
10157
10184
10199
10200
10200
10205
10205
10192
10170
10159
10173
10200
10205
10165
10097
10053
10076
10166
10269
10321
10297
10228
10169
10154
10173
10193
10188
10164
10141
10130
10125
10114
10103
10112
10156
10219
10258
10244
10185
10130
10122
10164
10215
10237
10225
10209
10216
10234
10228
10187
10141
10135
10177
10227
10232
10187
10134
10122
10155
10198
10221
10226
10232
10233
10203
10131
10059
10052
10133
10248
10313
10289
10216
10164
10158
10166
10146
10102
10079
10110
10179
10236
10249
10228
10201
10187
10184
10184
10189
10200
10207
10200
10181
10166
10165
10169
10160
10139
10127
10146
10184
10212
10208
10187
10176
10186
10200
10195
10172
10151
10144
10149
10156
10166
10179
10184
10163
10121
10097
10134
10226
10314
10332
10273
10192
10146
10140
10135
10111
10094
10126
10200
10258
10246
10179
10123
10130
10190
10245
10255
10225
10189
10166
10153
10145
10150
10174
10201
10202
10167
10124
10106
10128
10170
10213
10257
10308
10354
10365
10321
10243
10175
10146
10145
10143
10133
10135
10169
10220
10253
10244
10206
10172
10164
10176
10189
10188
10173
10152
10139
10145
10175
10215
10236
10216
10166
10125
10123
10153
10183
10186
10170
10157
10159
10164
10159
10153
10160
10178
10177
10138
10084
10066
10114
10202
10268
10270
10220
10167
10144
10146
10144
10127
10108
10107
10131
10172
10224
10286
10359
10441
10525
10610
10697
10781
10852
10900
10924
10925
10892
10807
10663
10478
10295
10151
10058
10006
9979
9969
9973
9988
10006
10027
10056
10095
10137
10167
10182
10188
10196
10206
10206
10186
10152
10117
10093
10085
10094
10121
10163
10208
10235
10236
10219
10201
10194
10198
10210
10232
10266
10300
10308
10272
10206
10150
10141
10182
10241
10280
10282
10256
10223
10198
10188
10200
10236
10287
10328
10338
10310
10259
10213
10188
10185
10192
10201
10211
10227
10245
10256
10252
10237
10230
10251
10297
10340
10346
10307
10257
10242
10281
10343
10380
10370
10339
10332
10364
10400
10397
10351
10311
10329
10410
10500
10535
10496
10419
10360
10348
10367
10388
10395
10395
10407
10436
10472
10499
10509
10509
10515
10540
10582
10627
10655
10651
10615
10565
10528
10529
10577
10659
10734
10759
10711
10607
10502
10448
10460
10508
10545
10543
10506
10458
10414
10374
10338
10311
10304
10315
10322
10305
10261
10216
10200
10225
10278
10333
10369
10378
10362
10324
10274
10226
10197
10202
10239
10287
10316
10303
10248
10178
10129
10127
10163
10205
10221
10206
10182
10175
10190
10210
10218
10214
10209
10211
10210
10194
10170
10159
10179
10217
10239
10223
10181
10150
10152
10176
10189
10170
10132
10108
10118
10155
10193
10214
10215
10204
10188
10176
10179
10206
10251
10288
10295
10266
10226
10201
10202
10214
10212
10189
10155
10126
10112
10116
10136
10171
10212
10245
10259
10255
10240
10221
10198
10169
10138
10119
10123
10147
10181
10217
10254
10284
10290
10256
10190
10128
10104
10126
10163
10178
10159
10126
10106
10113
10144
10190
10242
10282
10287
10243
10166
10097
10070
10087
10119
10143
10158
10177
10203
10214
10195
10151
10115
10111
10132
10154
10159
10151
10143
10140
10136
10128
10125
10135
10154
10167
10166
10159
10162
10185
10221
10262
10299
10323
10314
10261
10178
10105
10082
10104
10130
10121
10080
10051
10072
10132
10179
10174
10126
10084
10086
10130
10177
10193
10171
10131
10098
10088
10103
10133
10161
10172
10164
10152
10156
10184
10224
10260
10282
10289
10285
10268
10236
10198
10168
10160
10173
10199
10223
10235
10231
10210
10176
10141
10116
10107
10111
10121
10131
10142
10153
10160
10161
10160
10159
10155
10145
10131
10134
10168
10222
10258
10241
10175
10105
10077
10100
10139
10155
10139
10111
10089
10078
10071
10070
10083
10114
10144
10154
10140
10118
10097
10074
10040
10004
9994
10033
10106
10174
10200
10185
10151
10120
10103
10103
10128
10184
10257
10324
10367
10402
10458
10546
10647
10728
10781
10820
10858
10878
10848
10751
10608
10459
10327
10214
10113
10027
9966
9935
9921
9914
9918
9940
9977
10010
10024
10026
10036
10066
10101
10119
10112
10095
10090
10102
10122
10144
10170
10202
10227
10223
10188
10144
10124
10146
10193
10233
10247
10230
10187
10123
10048
9983
9957
9984
10048
10114
10152
10163
10170
10194
10231
10257
10249
10205
10152
10120
10126
10157
10191
10213
10226
10245
10270
10286
10277
10245
10218
10221
10254
10289
10295
10262
10206
10149
10105
10078
10078
10108
10158
10201
10213
10199
10188
10209
10260
10313
10344
10354
10361
10369
10363
10331
10286
10262
10277
10315
10339
10331
10311
10317
10366
10439
10496
10516
10505
10485
10472
10463
10450
10431
10416
10412
10423
10445
10471
10496
10519
10539
10556
10564
10562
10548
10526
10502
10475
10448
10427
10427
10453
10491
10506
10470
10388
10300
10249
10251
10279
10295
10281
10255
10242
10251
10268
10270
10247
10204
10156
10116
10097
10103
10131
10164
10183
10182
10172
10170
10180
10192
10194
10184
10175
10173
10174
10163
10135
10099
10074
10065
10064
10060
10051
10049
10066
10101
10136
10152
10138
10105
10079
10079
10104
10132
10137
10112
10077
10061
10081
10123
10160
10170
10156
10135
10124
10124
10125
10121
10108
10091
10078
10073
10081
10100
10122
10135
10131
10118
10114
10129
10160
10186
10190
10168
10130
10093
10071
10068
10082
10105
10127
10134
10126
10112
10113
10138
10178
10205
10194
10147
10092
10061
10067
10094
10112
10103
10077
10056
10061
10091
10132
10169
10191
10198
10189
10173
10163
10171
10195
10214
10204
10158
10098
10056
10048
10064
10082
10091
10100
10121
10150
10170
10168
10147
10126
10115
10108
10094
10070
10051
10054
10082
10116
10137
10140
10140
10152
10175
10189
10179
10147
10114
10103
10113
10124
10118
10095
10077
10078
10089
10085
10050
10005
9989
10028
10099
10152
10154
10117
10083
10083
10113
10146
10167
10183
10203
10213
10187
10115
10031
9989
10017
10093
10161
10176
10137
10078
10038
10032
10051
10078
10099
10114
10126
10137
10146
10143
10126
10099
10082
10091
10125
10162
10180
10176
10168
10173
10185
10178
10138
10087
10066
10103
10177
10239
10245
10197
10137
10112
10139
10196
10247
10262
10232
10167
10082
9996
9932
9910
9937
10002
10078
10131
10145
10124
10088
10056
10037
10034
10049
10082
10125
10155
10154
10120
10083
10072
10097
10138
10166
10167
10150
10128
10108
10088
10071
10066
10076
10085
10078
10057
10043
10059
10099
10140
10170
10207
10280
10383
10473
10509
10500
10505
10578
10717
10863
10949
10951
10879
10754
10583
10381
10187
10050
9986
9964
9939
9899
9879
9914
9994
10063
10078
10045
10016
10029
10073
10108
10109
10091
10089
10115
10148
10155
10133
10107
10105
10136
10178
10203
10199
10176
10156
10152
10156
10154
10134
10109
10101
10123
10161
10188
10182
10154
10133
10137
10157
10170
10169
10170
10188
10219
10231
10204
10150
10105
10092
10106
10126
10145
10172
10215
10257
10270
10244
10204
10189
10207
10236
10245
10230
10219
10234
10269
10294
10288
10258
10228
10215
10221
10234
10251
10270
10284
10282
10259
10229
10211
10213
10225
10235
10243
10263
10300
10343
10373
10384
10388
10401
10426
10451
10467
10480
10501
10528
10548
10547
10531
10518
10517
10518
10506
10485
10475
10491
10526
10555
10558
10542
10526
10524
10533
10542
10552
10564
10571
10553
10504
10448
10425
10454
10509
10535
10494
10402
10311
10260
10250
10251
10247
10241
10248
10261
10259
10227
10181
10155
10169
10207
10231
10219
10185
10167
10189
10237
10273
10266
10216
10151
10106
10097
10116
10146
10176
10201
10217
10218
10197
10155
10113
10096
10117
10161
10201
10214
10196
10160
10119
10081
10052
10044
10067
10114
10158
10167
10136
10094
10085
10124
10190
10236
10236
10202
10172
10173
10203
10237
10249
10232
10200
10170
10155
10157
10171
10189
10203
10209
10202
10183
10158
10138
10131
10136
10139
10125
10090
10054
10048
10088
10156
10213
10223
10186
10132
10098
10095
10113
10135
10156
10178
10204
10223
10228
10219
10205
10192
10177
10154
10127
10116
10131
10165
10187
10173
10126
10081
10077
10123
10191
10234
10227
10178
10122
10091
10092
10109
10122
10128
10136
10157
10183
10195
10175
10128
10080
10058
10071
10104
10133
10140
10127
10110
10105
10122
10155
10188
10204
10197
10172
10144
10121
10105
10094
10091
10106
10136
10162
10161
10124
10077
10057
10085
10140
10181
10180
10143
10102
10084
10094
10119
10149
10176
10193
10191
10169
10144
10141
10168
10207
10224
10203
10159
10117
10093
10079
10063
10052
10068
10125
10208
10276
10296
10260
10192
10130
10099
10110
10152
10204
10239
10242
10215
10176
10147
10142
10163
10203
10252
10299
10331
10338
10320
10284
10244
10207
10175
10148
10123
10098
10071
10050
10049
10081
10139
10192
10207
10182
10144
10132
10152
10176
10169
10128
10083
10070
10099
10143
10175
10184
10179
10171
10164
10155
10143
10126
10104
10079
10069
10095
10155
10213
10218
10149
10044
9969
9967
10026
10096
10138
10147
10137
10113
10075
10042
10052
10132
10262
10386
10457
10480
10506
10579
10697
10817
10903
10944
10950
10921
10848
10727
10580
10446
10346
10277
10216
10144
10059
9972
9900
9858
9856
9888
9936
9981
10020
10067
10130
10195
10239
10247
10237
10236
10253
10270
10262
10229
10196
10183
10184
10180
10160
10139
10136
10151
10163
10158
10141
10137
10158
10194
10223
10229
10213
10187
10163
10154
10169
10202
10231
10230
10201
10175
10191
10249
10310
10329
10297
10248
10223
10226
10232
10216
10185
10169
10181
10211
10239
10261
10290
10332
10368
10369
10331
10275
10234
10220
10224
10232
10242
10262
10288
10305
10303
10289
10285
10302
10330
10345
10335
10317
10320
10359
10419
10468
10484
10475
10466
10472
10481
10467
10423
10377
10372
10427
10508
10557
10539
10482
10447
10474
10548
10614
10633
10613
10589
10580
10574
10552
10521
10512
10546
10601
10630
10599
10526
10458
10440
10472
10523
10551
10542
10502
10457
10426
10414
10414
10413
10404
10388
10371
10357
10339
10309
10270
10239
10228
10236
10246
10236
10202
10155
10114
10095
10106
10146
10200
10242
10248
10216
10168
10139
10145
10171
10190
10187
10174
10171
10188
10213
10231
10235
10234
10236
10237
10225
10189
10138
10092
10073
10090
10132
10174
10191
10176
10139
10104
10084
10080
10086
10103
10141
10198
10258
10290
10276
10228
10181
10164
10184
10220
10247
10246
10217
10172
10138
10139
10180
10243
10287
10284
10236
10176
10144
10158
10203
10256
10295
10311
10301
10263
10205
10145
10104
10095
10117
10152
10183
10196
10185
10157
10136
10146
10194
10256
10288
10265
10203
10147
10139
10182
10241
10274
10265
10229
10198
10190
10206
10231
10248
10251
10252
10262
10279
10276
10228
10140
10055
10030
10082
10169
10226
10216
10169
10141
10164
10214
10244
10232
10201
10182
10182
10179
10155
10121
10110
10138
10184
10211
10200
10169
10152
10167
10202
10229
10231
10212
10193
10191
10210
10243
10272
10281
10263
10219
10169
10134
10127
10142
10157
10156
10139
10125
10129
10151
10171
10173
10161
10158
10183
10227
10263
10265
10238
10207
10193
10195
10198
10192
10186
10189
10200
10211
10219
10234
10262
10289
10289
10252
10200
10171
10180
10211
10234
10240
10246
10264
10280
10271
10232
10190
10178
10203
10243
10275
10297
10319
10336
10323
10262
10168
10089
10062
10088
10135
10175
10203
10224
10238
10232
10202
10163
10132
10118
10115
10115
10122
10144
10176
10200
10204
10193
10185
10186
10188
10181
10167
10156
10155
10161
10172
10188
10211
10229
10220
10181
10135
10117
10141
10180
10199
10192
10182
10191
10216
10237
10253
10293
10385
10519
10646
10730
10783
10846
10938
11024
11050
10991
10870
10722
10559
10375
10184
10034
9968
9983
10022
10029
9997
9970
9992
10064
10148
10202
10211
10186
10151
10125
10124
10155
10203
10239
10240
10210
10177
10167
10178
10191
10196
10203
10222
10242
10240
10207
10168
10157
10182
10213
10217
10192
10171
10181
10211
10229
10220
10207
10225
10278
10335
10356
10335
10303
10288
10289
10281
10248
10204
10178
10184
10213
10238
10251
10260
10276
10298
10305
10285
10243
10205
10198
10230
10288
10342
10366
10358
10334
10320
10331
10360
10383
10383
10358
10326
10305
10299
10300
10297
10295
10308
10344
10390
10417
10408
10372
10346
10363
10425
10494
10526
10504
10455
10424
10440
10489
10534
10551
10544
10537
10549
10575
10603
10620
10626
10621
10604
10573
10542
10533
10561
10613
10654
10657
10626
10592
10582
10594
10599
10575
10523
10471
10441
10430
10420
10397
10361
10325
10295
10269
10247
10240
10260
10304
10348
10364
10340
10294
10257
10248
10260
10269
10260
10232
10203
10190
10197
10217
10235
10239
10229
10213
10202
10200
10199
10186
10160
10133
10121
10131
10153
10170
10176
10179
10189
10208
10226
10229
10216
10197
10183
10176
10175
10180
10197
10227
10260
10282
10278
10247
10200
10155
10134
10150
10195
10236
10232
10167
10070
10004
10021
10115
10227
10286
10271
10216
10176
10177
10203
10217
10207
10189
10185
10199
10218
10225
10222
10224
10236
10252
10259
10258
10256
10263
10274
10280
10273
10256
10235
10212
10182
10146
10116
10105
10117
10145
10173
10189
10194
10193
10188
10183
10184
10196
10218
10237
10237
10219
10198
10194
10212
10238
10248
10232
10198
10162
10139
10132
10142
10169
10202
10224
10216
10181
10142
10132
10164
10221
10268
10285
10272
10244
10216
10197
10189
10191
10195
10188
10157
10109
10068
10056
10076
10110
10137
10154
10167
10177
10176
10156
10130
10126
10159
10211
10249
10253
10232
10213
10209
10211
10206
10201
10209
10232
10249
10234
10189
10144
10131
10154
10189
10215
10230
10247
10264
10262
10224
10163
10113
10107
10147
10206
10256
10286
10297
10291
10268
10237
10212
10204
10205
10194
10160
10114
10088
10102
10148
10194
10209
10189
10151
10119
10111
10130
10166
10203
10229
10241
10244
10246
10241
10220
10179
10129
10097
10094
10107
10110
10084
10040
10004
10001
10030
10077
10123
10157
10174
10174
10162
10152
10155
10168
10172
10154
10120
10101
10119
10162
10194
10185
10149
10134
10182
10292
10420
10521
10582
10625
10675
10735
10788
10819
10834
10842
10839
10797
10692
10524
10334
10170
10059
9988
9933
9880
9846
9857
9918
10005
10079
10119
10136
10154
10186
10214
10214
10181
10139
10122
10144
10181
10194
10170
10130
10112
10132
10173
10203
10205
10193
10190
10204
10216
10207
10175
10145
10138
10156
10182
10198
10209
10227
10256
10276
10265
10220
10168
10147
10170
10217
10248
10244
10213
10188
10188
10208
10222
10214
10193
10179
10190
10217
10238
10239
10227
10225
10246
10279
10299
10293
10271
10259
10270
10293
10303
10281
10240
10211
10217
10257
10303
10323
10307
10274
10257
10277
10326
10374
10391
10373
10342
10329
10342
10369
10390
10404
10423
10452
10478
10480
10458
10440
10454
10491
10512
10487
10438
10422
10479
10589
10685
10710
10667
10602
10556
10540
10543
10558
10587
10620
10629
10589
10513
10447
10430
10455
10477
10460
10411
10364
10344
10339
10327
10302
10276
10267
10275
10290
10311
10337
10358
10352
10311
10258
10230
10238
10248
10211
10128
10060
10074
10172
10282
10320
10267
10178
10126
10137
10178
10209
10216
10212
10207
10194
10165
10128
10103
10101
10108
10110
10109
10120
10151
10188
10206
10195
10174
10165
10175
10191
10193
10176
10151
10136
10141
10166
10200
10227
10230
10206
10171
10147
10146
10159
10166
10157
10137
10117
10100
10086
10080
10094
10135
10186
10211
10185
10125
10077
10084
10145
10220
10265
10261
10226
10193
10177
10172
10163
10142
10124
10130
10170
10231
10274
10266
10204
10121
10066
10065
10108
10158
10184
10181
10164
10149
10142
10139
10143
10159
10189
10220
10235
10221
10185
10147
10129
10138
10163
10184
10189
10183
10179
10185
10191
10179
10142
10102
10092
10125
10182
10223
10225
10196
10164
10149
10148
10149
10150
10158
10173
10182
10173
10153
10141
10147
10154
10139
10100
10067
10072
10116
10164
10179
10160
10135
10130
10142
10150
10139
10120
10114
10125
10138
10144
10148
10168
10207
10251
10273
10262
10227
10185
10147
10118
10102
10111
10146
10199
10245
10265
10251
10217
10182
10167
10177
10204
10231
10243
10237
10221
10208
10199
10191
10184
10183
10201
10237
10277
10300
10295
10268
10234
10204
10177
10151
10123
10096
10078
10073
10083
10102
10117
10119
10106
10089
10084
10096
10117
10139
10163
10195
10229
10243
10214
10151
10090
10073
10103
10146
10159
10134
10103
10103
10137
10175
10186
10166
10137
10116
10104
10086
10059
10034
10028
10047
10087
10142
10214
10304
10406
10504
10586
10649
10696
10731
10753
10762
10765
10771
10774
10752
10678
10542
10363
10182
10043
9968
9953
9977
10009
10029
10030
10021
10018
10035
10075
10125
10169
10192
10192
10178
10159
10144
10137
10143
10164
10194
10219
10222
10194
10147
10103
10084
10096
10130
10170
10202
10216
10206
10175
10140
10120
10123
10135
10133
10112
10092
10100
10137
10174
10178
10154
10136
10160
10220
10272
10283
10256
10228
10226
10241
10243
10217
10178
10152
10148
10160
10178
10203
10235
10266
10284
10290
10302
10331
10362
10365
10328
10280
10265
10290
10313
10282
10197
10119
10109
10172
10248
10277
10255
10234
10263
10340
10420
10458
10452
10427
10403
10384
10367
10366
10397
10463
10535
10579
10582
10557
10528
10501
10476
10457
10464
10511
10583
10640
10644
10593
10525
10481
10476
10495
10513
10516
10507
10492
10471
10448
10432
10433
10456
10485
10497
10479
10440
10400
10376
10366
10359
10343
10317
10293
10283
10293
10322
10356
10375
10362
10312
10242
10182
10155
10161
10178
10180
10155
10115
10083
10074
10083
10096
10103
10106
10115
10137
10165
10181
10177
10157
10141
10145
10173
10206
10224
10214
10182
10150
10135
10144
10170
10201
10222
10226
10209
10174
10127
10078
10042
10027
10042
10081
10131
10170
10185
10174
10154
10141
10141
10148
10148
10136
10116
10098
10096
10114
10150
10192
10226
10242
10245
10247
10256
10265
10258
10226
10183
10147
10127
10110
10081
10046
10033
10061
10117
10165
10180
10171
10162
10167
10173
10162
10141
10132
10149
10173
10172
10137
10096
10088
10118
10158
10174
10166
10158
10173
10207
10236
10248
10244
10230
10201
10155
10104
10071
10071
10093
10111
10116
10124
10156
10208
10251
10256
10222
10174
10135
10110
10095
10091
10104
10135
10166
10173
10151
10115
10093
10105
10144
10188
10205
10181
10128
10090
10109
10189
10279
10305
10239
10127
10053
10060
10117
10157
10150
10127
10134
10172
10194
10166
10118
10117
10194
10301
10356
10317
10220
10136
10103
10109
10121
10132
10151
10180
10196
10185
10159
10156
10192
10241
10258
10224
10164
10125
10135
10187
10246
10282
10281
10248
10208
10188
10204
10248
10286
10287
10252
10204
10171
10154
10138
10116
10099
10105
10136
10176
10205
10219
10222
10209
10169
10107
10054
10044
10084
10141
10178
10185
10187
10209
10239
10247
10214
10161
10126
10125
10140
10139
10116
10088
10075
10072
10062
10041
10031
10056
10117
10182
10213
10199
10157
10120
10107
10124
10167
10235
10324
10419
10496
10536
10546
10559
10613
10722
10858
10966
11002
10953
10843
10703
10557
10411
10268
10137
10035
9972
9943
9939
9954
9980
10009
10034
10059
10099
10167
10252
10311
10305
10237
10158
10128
10164
10224
10246
10209
10146
10113
10131
10172
10189
10164
10120
10097
10109
10138
10158
10161
10160
10168
10182
10188
10175
10155
10150
10174
10214
10246
10254
10241
10224
10217
10223
10235
10248
10265
10283
10292
10277
10233
10179
10148
10161
10208
10256
10274
10259
10232
10219
10225
10239
10251
10266
10294
10328
10343
10315
10251
10192
10184
10238
10323
10395
10424
10413
10377
10332
10283
10246
10242
10282
10349
10409
10434
10429
10419
10426
10443
10451
10440
10425
10421
10427
10427
10413
10400
10416
10473
10549
10608
10634
10631
10617
10601
10585
10574
10576
10590
10596
10571
10516
10459
10434
10453
10494
10531
10559
10588
10618
10625
10578
10476
10364
10297
10300
10351
10403
10422
10410
10389
10375
10364
10344
10306
10259
10222
10217
10247
10294
10329
10327
10285
10226
10177
10154
10152
10159
10165
10170
10178
10187
10190
10184
10175
10173
10190
10225
10264
10288
10280
10236
10171
10111
10074
10071
10101
10160
10233
10295
10315
10278
10207
10146
10128
10145
10162
10152
10127
10123
10153
10195
10211
10194
10175
10184
10214
10228
10203
10159
10140
10164
10207
10225
10203
10165
10142
10144
10153
10157
10163
10184
10218
10247
10253
10239
10220
10204
10192
10180
10171
10168
10163
10148
10126
10118
10140
10183
10214
10208
10178
10162
10180
10215
10226
10197
10153
10135
10158
10198
10218
10206
10180
10165
10169
10184
10195
10199
10199
10200
10201
10208
10226
10253
10276
10277
10248
10202
10163
10148
10156
10168
10168
10156
10143
10142
10148
10147
10127
10095
10072
10078
10110
10144
10159
10159
10166
10196
10240
10271
10272
10249
10219
10194
10175
10163
10164
10187
10221
10246
10247
10233
10225
10229
10231
10216
10188
10170
10177
10194
10190
10150
10097
10067
10080
10128
10184
10225
10239
10220
10178
10140
10142
10195
10269
10305
10269
10184
10106
10077
10090
10112
10128
10152
10201
10260
10292
10284
10257
10248
10266
10277
10246
10175
10111
10101
10154
10239
10309
10336
10318
10274
10227
10198
10193
10200
10190
10149
10086
10034
10014
10026
10055
10093
10142
10202
10258
10285
10276
10247
10219
10194
10159
10109
10065
10055
10086
10133
10161
10164
10161
10172
10189
10184
10142
10083
10045
10056
10105
10156
10178
10166
10140
10125
10127
10141
10154
10168
10193
10234
10282
10318
10330
10336
10372
10462
10595
10729
10829
10886
10916
10929
10914
10848
10727
10575
10425
10294
10178
10074
9990
9945
9939
9958
9980
9996
10008
10022
10036
10044
10049
10061
10087
10127
10175
10223
10257
10260
10218
10145
10080
10066
10111
10180
10225
10232
10228
10246
10286
10314
10299
10248
10197
10175
10174
10166
10137
10102
10092
10120
10170
10213
10231
10227
10220
10222
10231
10234
10221
10192
10162
10155
10179
10226
10274
10306
10319
10320
10312
10291
10255
10217
10195
10197
10213
10223
10225
10227
10242
10266
10285
10292
10300
10324
10363
10394
10393
10357
10310
10277
10269
10277
10287
10292
10297
10311
10339
10382
10430
10467
10476
10455
10418
10392
10395
10429
10482
10540
10590
10621
10621
10589
10543
10509
10505
10526
10553
10568
10571
10574
10587
10607
10625
10631
10621
