419
425
433
447
453
459
465
473
481
487
493
503
513
521
531
519
535
553
525
499
581
641
703
691
679
889
1029
1169
1333
1499
1639
1781
2011
2385
2759
2655
2553
2347
2223
2099
1703
1309
855
401
-238
-456
-676
-750
-826
-750
-644
-538
-412
-286
-84
7
97
167
237
247
255
289
323
355
361
365
391
401
411
421
431
437
445
455
459
463
465
467
469
469
469
467
465
463
461
457
455
453
451
449
445
443
443
441
441
441
441
443
443
445
447
449
453
455
459
461
465
473
477
483
489
495
501
509
527
537
547
559
571
597
611
625
641
659
663
683
703
725
747
769
791
833
853
875
893
913
951
967
985
1003
1021
1037
1053
1081
1093
1107
1119
1131
1151
1159
1169
1175
1181
1191
1193
1195
1195
1195
1193
1191
1181
1173
1167
1157
1149
1127
1115
1103
1089
1075
1059
1045
1015
997
981
975
969
935
917
901
883
865
827
807
787
765
745
723
701
657
633
609
585
561
513
489
465
441
417
395
373
327
305
283
263
241
201
187
173
159
145
133
119
99
89
79
73
65
51
45
39
35
29
21
17
11
7
3
-2
-8
-18
-24
-30
-36
-44
-60
-68
-76
-84
-92
-102
-112
-130
-140
-152
-162
-174
-196
-208
-222
-234
-248
-276
-290
-306
-322
-338
-352
-368
-402
-418
-434
-448
-464
-492
-504
-518
-530
-542
-552
-562
-576
-582
-588
-590
-594
-596
-594
-594
-590
-588
-576
-568
-562
-552
-542
-530
-520
-492
-498
-504
-484
-466
-422
-396
-370
-366
-364
-320
-278
-188
-140
-94
-50
-6
69
101
131
123
115
155
163
169
179
187
193
199
203
205
207
207
205
201
197
193
187
181
177
171
157
151
145
139
133
123
119
113
109
105
103
101
97
97
95
97
97
101
105
109
115
119
133
143
151
161
171
183
195
221
235
249
265
279
309
323
337
351
363
375
385
407
415
423
429
437
447
449
453
453
455
455
453
453
451
449
445
441
433
427
421
413
407
391
371
361
349
335
321
291
275
259
257
253
211
189
167
145
123
87
73
59
47
35
27
17
3
1
-2
-2
-2
5
13
19
29
39
51
61
91
89
87
109
129
179
203
227
235
243
303
343
433
485
487
489
637
741
847
965
1083
1321
1417
1515
1737
1959
2009
2061
1905
1829
1755
1339
925
-24
-458
-894
-976
-1060
-1022
-986
-668
-492
-316
-198
-80
-82
-46
-12
15
43
93
103
113
121
129
141
153
171
177
181
183
185
187
185
183
179
173
167
161
145
137
127
117
107
87
77
67
57
47
27
19
11
3
-4
-10
-18
-30
-34
-38
-42
-46
-50
-50
-52
-52
-52
-50
-50
-44
-40
-36
-30
-24
-8
1
9
19
29
53
67
79
93
107
123
137
167
183
197
213
227
257
271
285
299
311
325
339
363
375
387
399
411
433
445
457
467
479
499
507
515
523
531
535
541
545
545
545
543
541
527
515
505
521
537
517
497
449
439
431
391
353
269
227
183
143
103
67
29
25
3
-20
-26
-34
-60
-68
-78
-84
-90
-100
-102
-106
-108
-110
-110
-112
-112
-110
-110
-108
-106
-102
-100
-98
-94
-92
-88
-84
-76
-70
-66
-60
-56
-42
-34
-28
-20
-14
1
9
17
25
31
39
45
57
63
69
73
77
83
85
87
87
87
87
85
81
79
75
71
67
61
59
55
53
49
45
45
45
47
49
53
55
63
69
75
83
89
105
113
121
129
137
143
149
161
165
169
171
173
173
171
169
165
161
151
147
141
135
127
121
115
103
99
93
89
85
81
81
79
81
81
83
85
93
99
103
111
117
131
139
147
155
163
173
181
197
205
213
221
229
245
253
259
267
273
285
291
297
303
307
311
315
319
321
321
321
319
315
311
307
301
295
289
283
267
261
253
245
237
225
219
213
211
207
203
203
203
205
207
211
215
225
231
237
243
249
263
271
279
287
293
301
309
325
335
343
353
361
389
399
409
421
443
453
465
475
485
495
505
519
523
529
531
535
531
527
523
513
505
491
477
509
485
463
435
409
375
331
287
245
201
121
87
51
55
59
39
19
9
0
-12
-18
-24
-28
-28
-30
-28
-28
-22
-16
-6
3
13
29
43
71
69
65
91
115
105
93
181
245
307
295
283
499
637
777
941
1105
1453
1617
1781
2019
2259
2413
2567
2663
2407
2151
2031
1913
1163
733
305
35
-236
-392
-550
-572
-492
-414
-330
-248
-260
-254
-250
-230
-212
-176
-178
-180
-176
-172
-166
-162
-152
-148
-144
-140
-138
-130
-124
-118
-110
-104
-96
-88
-66
-52
-40
-26
-12
19
35
51
67
83
115
129
143
157
169
181
191
209
215
221
225
229
231
231
229
227
225
223
219
213
211
207
205
203
203
205
207
211
215
227
237
245
255
265
279
291
321
337
351
367
383
403
421
439
457
475
491
509
545
563
581
599
617
653
673
693
713
733
753
773
813
831
851
865
879
905
913
923
929
935
941
941
941
937
933
925
917
893
905
919
897
877
827
817
807
767
729
687
647
567
527
489
453
419
359
333
305
297
289
267
255
243
235
225
221
215
213
213
213
217
219
229
235
241
249
257
265
271
283
289
293
297
301
303
303
303
301
297
289
283
277
271
263
257
249
233
225
217
211
203
187
181
175
169
161
157
151
139
135
129
125
121
113
109
105
103
99
95
95
93
93
91
93
93
95
99
101
103
105
113
117
119
123
127
131
135
141
145
149
153
157
163
167
171
175
179
183
187
197
201
205
209
213
221
225
227
229
231
235
237
237
237
235
235
233
229
227
223
219
215
205
201
195
191
185
179
173
159
153
145
139
131
115
107
99
91
81
65
57
49
43
35
29
23
13
11
7
5
3
3
5
5
9
11
15
19
29
35
39
45
51
61
67
71
77
81
91
97
101
105
109
113
117
125
129
131
135
139
147
151
155
159
163
167
169
175
179
181
185
187
193
195
197
199
201
205
207
207
209
211
213
213
217
219
219
221
221
221
221
221
221
221
219
217
213
211
207
203
197
187
181
173
167
159
151
143
127
119
109
101
91
75
69
61
55
49
39
37
33
31
27
27
27
37
43
49
63
77
61
35
9
47
85
143
201
167
267
365
501
639
979
1145
1311
1461
1611
2313
2335
2359
2347
2337
2341
2347
1665
1231
799
379
-42
-482
-598
-716
-712
-710
-586
-462
-480
-442
-406
-388
-370
-294
-260
-228
-222
-218
-184
-170
-158
-146
-136
-128
-122
-116
-114
-114
-116
-118
-126
-132
-140
-148
-156
-164
-174
-194
-202
-210
-218
-226
-236
-238
-242
-242
-242
-236
-230
-224
-214
-204
-190
-178
-148
-152
-156
-132
-108
-58
-32
-6
19
43
67
91
135
155
175
193
209
239
255
269
283
297
311
323
347
359
371
393
413
423
435
445
455
475
483
493
501
511
519
529
545
553
563
571
581
601
611
621
631
643
655
667
693
707
721
735
749
777
789
803
815
827
849
857
867
871
877
879
883
879
875
871
863
855
831
841
853
831
811
785
761
731
699
669
633
599
525
487
449
411
373
297
261
225
219
211
189
165
125
113
101
87
73
51
41
29
19
9
3
-4
-16
-20
-26
-28
-30
-30
-26
-24
-18
-14
1
13
23
37
49
65
81
115
119
123
149
173
219
235
251
263
275
285
293
305
307
309
307
303
293
285
275
263
251
239
225
197
183
169
155
139
113
101
87
75
63
43
33
23
15
5
-2
-10
-26
-32
-40
-46
-52
-64
-68
-72
-74
-78
-80
-82
-80
-78
-76
-72
-68
-54
-46
-40
-30
-22
-4
5
13
21
29
37
43
53
57
59
61
63
63
63
61
59
57
55
51
47
45
41
41
39
37
37
37
39
39
43
47
49
53
57
61
65
75
81
87
93
99
111
119
125
133
141
149
155
171
181
189
197
205
221
229
237
245
251
261
265
269
271
273
273
273
269
265
261
255
249
231
223
213
203
191
179
167
143
131
119
107
95
73
63
53
45
35
27
19
5
1
-4
-8
-14
-20
-22
-24
-24
-26
-26
-24
-24
-20
-18
-14
-12
-4
1
5
11
17
29
35
39
45
49
53
57
63
65
67
67
67
67
67
65
65
63
63
61
59
61
63
69
75
93
77
61
81
99
53
97
141
199
255
279
301
473
575
677
787
897
1117
1187
1259
1453
1647
1791
1757
1723
1719
1715
1363
1011
119
-286
-694
-852
-1010
-1088
-998
-908
-802
-696
-676
-658
-578
-530
-484
-442
-402
-346
-338
-330
-304
-278
-232
-212
-194
-184
-176
-164
-154
-134
-126
-118
-112
-108
-100
-98
-96
-94
-94
-94
-94
-96
-96
-96
-96
-96
-94
-92
-92
-88
-86
-82
-78
-70
-64
-58
-50
-44
-32
-24
-18
-10
-4
9
17
23
29
35
41
47
61
69
75
83
91
111
121
131
143
155
169
183
211
227
243
259
275
307
323
337
351
365
391
401
413
423
433
441
451
465
469
475
479
483
489
491
495
495
497
499
501
503
503
505
505
507
511
513
515
517
519
523
525
527
529
531
533
535
535
535
535
531
529
521
515
509
499
491
479
469
443
427
413
397
367
347
325
305
283
243
227
209
195
179
165
151
125
113
101
91
81
63
55
47
41
35
31
25
17
15
11
11
9
9
11
11
13
15
19
21
29
33
35
39
43
51
55
59
63
67
75
79
83
87
91
97
101
111
117
121
129
135
149
157
165
175
183
193
201
221
231
239
249
259
277
287
295
303
309
323
327
331
335
337
339
339
335
333
329
323
317
301
293
283
271
259
247
235
211
199
185
173
161
139
131
121
115
107
99
99
97
99
99
103
107
119
127
135
145
153
171
179
187
195
203
211
217
227
231
233
235
237
237
237
235
233
231
227
225
223
221
219
217
215
211
209
207
205
203
199
197
195
193
191
189
185
179
177
173
169
165
159
155
151
149
145
143
139
133
131
129
129
127
127
127
127
129
131
137
141
145
151
157
165
173
193
205
215
229
241
269
283
297
313
327
341
355
391
401
409
419
429
431
433
431
431
425
417
411
401
393
383
375
353
343
331
321
309
291
283
275
269
261
257
251
243
239
235
233
231
229
229
227
227
225
227
229
231
229
227
229
231
243
257
271
285
299
281
243
203
241
279
339
399
573
569
567
705
843
1221
1437
1653
1869
2087
2797
3059
3323
3415
3509
3341
3175
2467
1899
1331
867
403
-410
-534
-660
-612
-566
-450
-334
-286
-288
-292
-280
-268
-220
-214
-210
-202
-196
-190
-186
-176
-170
-166
-162
-160
-156
-152
-150
-146
-144
-136
-130
-126
-120
-116
-110
-104
-92
-86
-80
-76
-72
-64
-60
-58
-56
-56
-56
-58
-60
-62
-64
-66
-70
-76
-78
-80
-82
-84
-84
-82
-82
-80
-78
-74
-70
-60
-54
-48
-40
-34
-20
-12
-6
1
7
15
21
37
45
53
61
69
91
101
111
123
135
167
161
153
175
195
221
245
253
293
333
375
417
507
553
599
641
685
723
763
757
757
757
767
777
785
783
783
777
771
755
741
729
713
699
699
701
655
631
607
583
559
511
487
465
441
419
397
375
329
305
281
257
233
185
161
137
113
89
75
59
31
21
9
1
-6
-14
-14
-16
-14
-12
-4
3
9
17
25
33
41
57
65
73
79
83
91
93
93
91
89
85
81
67
59
49
39
27
3
-8
-20
-32
-46
-70
-82
-94
-104
-116
-124
-134
-150
-156
-164
-168
-174
-180
-180
-182
-180
-180
-178
-176
-168
-162
-158
-150
-144
-128
-118
-110
-100
-90
-68
-56
-46
-34
-24
-14
-4
15
25
33
41
47
61
67
71
75
79
83
85
89
91
91
91
91
91
91
89
89
87
85
83
81
79
77
75
73
67
65
61
59
55
47
43
39
35
31
27
21
13
9
5
1
-2
-8
-10
-12
-12
-14
-14
-14
-12
-10
-8
-4
-2
3
7
9
13
15
19
21
23
25
25
25
23
21
19
15
13
9
0
-4
-8
-12
-18
-22
-26
-34
-36
-40
-42
-46
-48
-48
-50
-50
-50
-48
-46
-44
-42
-40
-36
-34
-28
-24
-20
-14
-10
0
5
9
15
21
27
33
47
55
61
69
75
87
93
99
105
109
117
119
121
123
123
123
121
117
113
109
103
97
85
77
69
61
51
43
33
15
7
-2
-10
-18
-32
-38
-44
-48
-52
-54
-52
-52
-50
-48
-42
-38
-18
-2
11
27
43
35
31
25
57
89
135
181
305
293
281
479
749
907
1065
1203
1341
1615
1889
2279
2183
2089
1997
1907
1679
1327
977
631
285
-220
-324
-430
-396
-364
-200
-38
-60
-58
-56
-40
-24
27
51
73
75
75
85
93
113
123
131
139
145
155
161
167
173
177
187
193
199
205
209
215
221
231
237
243
249
253
261
265
269
273
277
281
283
289
291
293
295
297
301
303
305
307
309
315
317
319
321
323
325
327
331
333
335
337
339
341
343
345
347
349
351
353
359
363
365
371
375
387
395
403
413
423
445
459
473
487
503
519
535
541
561
581
601
623
667
689
713
735
759
781
805
853
875
897
911
927
951
961
971
975
981
983
985
979
969
961
983
1007
967
941
917
907
897
809
763
719
673
629
587
545
469
437
405
409
415
375
365
353
341
327
319
309
297
291
285
283
279
277
279
279
283
285
295
303
309
319
327
337
347
367
379
389
399
411
433
443
453
461
471
479
487
499
505
511
513
517
521
521
523
523
523
521
519
517
513
509
503
499
487
479
473
465
457
437
425
415
403
393
371
347
337
325
315
305
287
281
273
269
263
259
259
257
259
261
265
269
279
285
291
297
303
317
323
327
333
337
341
343
345
345
345
343
341
335
331
325
321
315
309
301
289
283
277
273
267
257
253
249
245
241
235
233
231
229
227
227
225
221
219
217
215
213
209
207
203
201
197
195
191
185
183
179
175
171
165
163
161
159
157
153
153
151
151
151
153
153
157
159
161
165
167
173
179
183
187
191
197
201
211
217
221
227
231
241
245
249
253
257
263
267
269
271
271
273
273
271
269
267
263
259
249
243
237
229
221
213
203
181
171
161
151
139
119
109
99
91
81
65
59
53
49
43
41
37
35
35
33
35
35
37
39
39
41
43
45
47
51
53
55
59
61
67
73
77
81
83
91
97
119
131
143
135
125
167
149
129
173
217
333
341
349
447
545
663
783
1033
1147
1263
1473
1685
1887
1885
1883
1897
1911
1607
1303
389
-14
-418
-598
-780
-938
-902
-868
-736
-606
-582
-544
-508
-460
-412
-366
-320
-240
-206
-174
-144
-114
-106
-84
-62
-56
-52
-42
-32
-20
-16
-14
-12
-12
-16
-20
-26
-32
-38
-54
-62
-72
-80
-90
-100
-110
-130
-138
-148
-156
-166
-180
-186
-192
-196
-202
-204
-208
-210
-208
-206
-202
-200
-188
-180
-172
-160
-150
-124
-108
-92
-96
-102
-80
-58
-12
13
37
65
91
145
177
207
235
261
289
315
367
393
419
445
473
533
557
581
591
603
617
633
657
667
677
683
689
697
699
701
701
703
705
705
707
709
713
717
721
735
743
753
765
777
805
821
837
853
869
885
901
931
943
957
965
975
989
991
993
989
985
965
985
1007
985
963
965
969
887
841
795
745
695
597
547
497
451
405
367
327
259
233
205
207
207
163
149
135
123
111
93
87
79
75
69
67
63
61
63
63
67
69
77
83
87
93
97
103
109
123
129
135
141
147
161
167
173
179
185
197
205
211
217
223
231
237
249
257
263
269
273
283
289
293
297
299
301
301
303
303
301
299
295
287
283
277
271
263
257
249
231
221
211
201
191
171
161
149
139
129
109
99
89
81
73
67
59
47
43
39
39
37
37
39
41
45
49
55
61
73
81
89
99
107
125
133
141
149
157
173
179
185
191
195
199
203
207
207
207
207
205
199
195
191
187
181
175
167
151
145
137
129
121
105
99
93
87
81
73
71
69
69
69
73
75
83
91
97
107
117
141
155
167
183
197
213
229
263
281
297
313
329
361
375
387
399
413
433
441
449
455
461
463
467
469
467
465
461
457
443
433
423
411
401
387
375
343
343
343
325
305
263
241
217
195
173
151
127
83
63
41
25
9
-20
-34
-48
-60
-72
-90
-96
-104
-108
-112
-112
-112
-108
-106
-104
-96
-88
-60
-74
-88
-62
-36
-8
17
-34
19
71
147
221
411
417
425
589
753
1155
1345
1537
1705
1873
2293
2715
2721
2679
2637
2615
2595
1693
1123
553
0
-554
-900
-1248
-1456
-1344
-1232
-1028
-826
-494
-388
-282
-284
-288
-232
-216
-200
-168
-136
-124
-114
-112
-102
-94
-88
-82
-72
-70
-68
-66
-64
-62
-62
-58
-56
-54
-50
-48
-38
-32
-26
-18
-10
5
15
25
35
45
55
63
79
87
93
99
103
109
111
111
111
109
107
105
99
97
93
91
87
83
83
83
85
87
91
93
103
111
119
129
137
157
171
183
197
209
239
255
271
273
275
293
309
347
367
387
409
431
481
507
535
557
579
613
647
715
735
755
779
805
823
835
849
857
865
873
873
875
869
865
855
845
881
859
839
813
787
775
733
693
647
603
553
505
407
361
313
269
225
149
119
89
97
105
63
51
39
29
17
9
1
-6
-10
-14
-16
-18
-16
-12
-8
-2
1
9
15
33
43
51
61
71
91
101
109
117
125
139
145
149
153
157
159
159
159
157
153
149
145
135
129
121
113
105
97
89
71
63
55
47
39
23
17
9
3
-2
-6
-12
-22
-24
-28
-30
-34
-38
-38
-40
-40
-40
-40
-38
-38
-36
-34
-32
-30
-22
-16
-12
-6
-2
11
19
25
33
41
51
59
75
85
93
101
109
123
129
135
141
145
149
151
153
153
151
149
147
141
137
131
127
121
109
103
97
91
85
81
75
65
61
57
55
53
49
49
49
51
51
55
59
63
69
73
79
85
99
107
113
123
131
149
159
167
175
183
193
201
217
223
229
235
241
249
253
255
257
257
257
255
253
251
247
243
239
231
227
221
217
213
205
201
197
195
191
189
187
183
183
183
183
183
185
187
187
189
189
191
193
195
197
197
199
199
203
205
205
207
209
213
215
217
221
225
229
233
243
247
251
257
261
271
275
279
283
285
287
289
293
295
295
295
295
295
293
289
289
289
297
301
305
319
331
321
309
237
273
307
361
415
421
523
625
751
877
1013
1151
1457
1579
1703
1891
2079
2491
2395
2299
2199
2101
1873
1535
1197
847
499
223
-54
-364
-382
-400
-150
99
87
111
135
173
209
247
283
329
293
255
265
273
287
293
297
299
299
299
303
307
309
311
315
317
321
323
325
327
329
333
335
335
335
335
337
337
335
335
333
333
333
331
331
329
331
331
333
333
339
343
347
353
359
375
383
393
405
417
445
459
475
491
509
515
523
563
583
605
625
645
679
695
711
725
739
751
765
789
801
813
823
833
853
863
873
881
891
907
915
925
933
941
949
957
971
977
985
991
997
1005
1009
1013
1015
1019
1019
1021
1019
1017
1015
1011
1009
997
989
983
973
965
943
929
917
903
889
875
861
829
813
799
783
769
739
725
713
701
689
677
667
651
643
637
631
627
617
613
611
609
607
603
599
597
593
591
587
583
571
563
555
545
537
515
503
491
477
463
449
435
405
391
377
363
349
323
313
303
295
285
281
275
269
271
271
275
277
287
295
303
313
321
343
355
365
375
383
391
401
417
423
431
435
439
441
441
441
437
435
429
425
411
401
393
385
377
357
347
337
329
319
301
295
287
283
277
273
269
265
265
263
265
267
271
275
279
285
289
295
299
309
315
319
323
327
335
337
339
341
343
345
345
345
345
343
341
339
335
333
331
329
327
325
325
323
325
325
327
327
331
335
339
345
349
361
367
373
379
385
395
399
405
407
411
413
415
411
407
403
395
389
371
359
347
333
317
303
287
255
239
223
209
193
167
155
143
135
125
119
113
103
101
97
97
95
93
93
91
91
89
85
81
77
73
69
63
57
41
33
23
13
3
-18
-30
-42
-52
-64
-76
-90
-114
-124
-136
-148
-160
-180
-190
-200
-208
-218
-232
-238
-244
-246
-250
-250
-252
-250
-248
-248
-244
-240
-220
-228
-236
-216
-196
-174
-154
-210
-172
-134
-74
-16
149
161
171
309
445
785
979
1173
1375
1579
1815
2053
2575
2745
2917
2729
2543
2505
2157
1811
1335
859
403
-52
-478
-588
-698
-690
-684
-568
-540
-514
-498
-482
-482
-462
-444
-424
-406
-388
-372
-342
-324
-306
-286
-268
-230
-210
-190
-168
-146
-122
-100
-52
-28
-6
17
41
85
107
127
141
153
167
179
201
209
217
223
229
235
237
237
237
237
233
231
227
225
221
219
217
213
213
211
213
215
219
225
229
237
243
251
259
277
287
297
309
319
341
353
363
375
385
407
417
429
441
453
465
477
503
515
529
543
557
587
603
619
635
653
669
685
717
733
749
763
779
805
817
829
837
847
863
867
873
875
877
875
875
867
859
853
843
835
809
819
829
809
789
765
743
689
677
665
627
589
507
465
423
383
343
267
235
201
203
203
183
163
153
143
133
127
121
115
115
113
113
113
117
119
129
135
141
147
153
165
173
179
185
189
195
199
207
209
211
211
211
209
207
205
201
197
185
179
173
165
157
149
141
121
113
103
93
81
61
51
39
29
19
9
-2
-22
-30
-40
-48
-58
-72
-78
-84
-86
-90
-94
-92
-92
-88
-86
-80
-76
-58
-48
-38
-26
-14
11
25
39
53
67
81
95
121
133
145
155
163
179
185
191
195
199
203
203
203
203
201
199
197
191
189
185
181
177
171
167
163
161
157
153
149
143
141
137
135
131
127
125
121
121
119
115
115
113
113
113
115
115
119
123
127
133
139
153
163
171
183
195
209
221
249
265
281
297
313
347
363
377
391
405
417
429
449
455
461
465
469
469
465
463
457
453
437
427
417
407
397
385
375
353
343
333
323
313
295
289
281
275
269
265
259
251
247
243
241
239
235
235
233
233
233
233
235
235
237
239
243
245
253
259
265
273
279
299
309
317
329
341
353
365
395
397
399
425
451
449
487
525
509
493
637
729
821
927
1033
1143
1253
1455
1467
1481
1703
1925
1923
1855
1789
1661
1533
1303
1075
749
589
429
169
-90
-364
-182
0
-30
-62
-76
-50
-26
17
59
109
157
203
227
251
277
301
349
369
387
389
391
401
413
429
435
443
445
449
453
453
455
453
453
451
449
445
443
441
439
437
431
429
427
425
423
421
419
417
415
415
413
413
409
407
405
403
401
397
395
395
393
391
389
389
391
393
395
399
403
415
423
433
443
455
483
499
515
513
511
535
561
611
637
663
681
699
729
743
757
767
777
785
793
801
803
807
807
807
803
799
797
791
787
777
771
767
761
755
747
741
729
721
713
705
697
679
669
659
647
637
623
611
585
571
557
541
527
495
479
463
447
431
401
385
371
357
341
327
311
285
271
257
245
233
209
199
187
177
167
157
147
129
121
113
107
101
91
87
83
81
79
79
77
81
85
87
91
95
107
115
121
127
133
147
153
159
163
167
171
173
175
175
175
173
171
163
159
155
151
145
141
137
129
127
123
121
119
117
119
119
121
123
129
133
137
141
145
149
151
159
161
163
165
167
171
171
171
171
169
169
167
163
161
159
157
153
149
147
145
143
141
137
137
135
135
135
137
139
143
147
149
155
159
169
177
183
191
199
207
215
233
243
251
259
267
283
291
299
307
313
323
329
333
335
337
339
341
341
339
337
335
331
321
315
309
303
295
287
279
261
253
245
237
227
211
205
197
191
185
181
177
173
173
171
173
175
181
185
189
193
197
207
211
215
219
223
227
229
231
231
231
231
229
225
223
219
217
213
209
205
199
197
195
193
191
189
189
189
189
189
189
191
191
191
191
191
191
191
191
189
189
189
191
191
191
195
197
197
195
205
197
189
209
227
193
237
281
227
173
345
475
607
773
939
1089
1241
1501
1885
2269
2181
2095
1925
1823
1721
1363
1007
597
189
-524
-670
-818
-854
-892
-694
-526
-358
-198
-40
23
71
119
93
67
97
125
73
75
77
77
75
61
57
51
43
35
27
19
3
-4
-12
-20
-28
-42
-48
-54
-58
-62
-64
-68
-70
-70
-70
-68
-66
-58
-52
-48
-40
-34
-18
-8
1
11
21
33
43
67
79
91
105
117
141
155
167
179
191
203
215
237
249
261
271
281
301
311
321
331
339
355
365
373
379
385
393
401
415
421
427
433
439
451
457
463
467
473
477
483
493
497
503
507
513
523
527
531
535
539
547
549
553
555
559
561
563
565
563
563
561
559
551
545
539
529
521
511
501
475
459
443
447
453
413
391
369
345
319
267
241
213
187
161
137
111
65
43
21
3
-16
-36
-48
-62
-72
-84
-94
-104
-118
-124
-130
-134
-140
-146
-148
-150
-150
-152
-152
-152
-152
-150
-150
-148
-148
-144
-142
-140
-138
-136
-130
-126
-124
-120
-118
-114
-110
-100
-94
-90
-84
-80
-70
-64
-60
-54
-48
-42
-38
-30
-26
-22
-20
-18
-14
-14
-14
-16
-18
-24
-28
-34
-40
-46
-54
-62
-78
-88
-98
-108
-118
-138
-148
-158
-166
-176
-184
-192
-204
-208
-214
-218
-222
-224
-224
-224
-222
-222
-216
-210
-206
-200
-196
-190
-184
-172
-164
-158
-150
-144
-130
-122
-116
-108
-102
-94
-88
-74
-66
-60
-52
-46
-30
-22
-16
-8
-2
11
19
27
35
41
49
57
73
81
87
95
103
117
125
133
141
147
153
159
171
177
181
187
191
201
205
209
213
217
221
225
233
239
243
249
253
263
269
273
279
283
293
297
301
305
307
309
309
309
307
303
299
295
281
273
265
255
245
233
221
197
185
171
157
143
117
105
91
79
67
47
39
29
21
13
7
1
-4
-4
-6
-4
-2
5
13
21
31
39
51
63
95
115
135
135
135
179
187
195
229
261
349
407
465
439
413
507
601
867
1027
1187
1327
1469
2035
2215
2395
2293
2191
2091
1991
1747
1391
1037
689
341
-168
-282
-396
-374
-354
-142
-88
-34
-42
-52
-38
-24
21
43
65
67
69
83
91
99
105
111
117
121
127
131
133
135
137
143
147
151
155
159
165
169
181
187
193
201
207
223
231
239
249
257
273
281
289
297
303
311
319
331
337
343
349
355
365
371
375
379
383
387
395
397
401
403
405
411
413
417
419
423
429
433
437
441
445
451
457
473
481
491
501
513
539
553
569
565
561
581
603
649
675
703
717
731
803
841
879
903
927
949
963
979
991
1005
1013
1023
1031
1031
1033
1029
1027
1015
1005
997
985
975
961
949
917
901
887
885
883
845
823
803
777
753
699
701
703
661
619
571
525
409
369
327
283
239
167
179
191
187
183
173
163
149
147
145
147
149
151
155
159
163
167
173
177
187
191
195
199
201
205
205
205
205
203
199
195
191
187
181
177
171
159
153
145
139
133
119
113
107
101
93
87
81
71
65
59
53
47
35
29
23
17
11
-2
-8
-16
-22
-30
-38
-46
-60
-66
-74
-80
-88
-98
-102
-106
-108
-112
-112
-114
-110
-106
-104
-98
-94
-80
-70
-62
-52
-44
-26
-16
-6
1
9
17
23
33
37
39
41
41
37
33
29
23
17
11
3
-12
-20
-28
-36
-44
-58
-64
-70
-74
-80
-86
-86
-88
-88
-88
-86
-84
-78
-74
-70
-64
-60
-48
-40
-34
-28
-22
-14
-6
7
15
23
31
39
55
63
71
79
87
95
103
119
125
131
139
145
155
159
161
165
167
167
167
165
163
159
155
151
139
131
123
115
105
85
75
63
53
41
31
19
-2
-12
-22
-30
-40
-56
-62
-68
-72
-78
-86
-88
-90
-90
-90
-88
-88
-86
-82
-80
-76
-74
-66
-62
-58
-54
-50
-46
-42
-32
-28
-24
-18
-14
0
7
13
19
25
43
55
67
63
57
77
95
135
119
103
137
171
269
331
393
411
429
533
637
879
1005
1131
1249
1367
1479
1703
1927
1961
1997
1883
1833
1785
1491
1199
851
505
-208
-384
-562
-650
-738
-708
-648
-590
-586
-582
-554
-526
-496
-468
-442
-426
-412
-334
-316
-298
-262
-228
-190
-152
-84
-64
-46
-20
3
47
67
85
91
97
121
133
143
153
163
171
179
197
205
213
223
231
249
259
267
277
287
297
307
325
335
343
351
357
369
375
379
383
385
385
385
383
383
383
391
397
403
411
421
431
443
471
485
501
517
535
569
585
603
619
635
665
679
693
705
717
725
735
751
757
763
767
771
775
775
775
773
773
771
769
761
755
751
743
737
723
713
705
695
685
665
653
643
631
619
607
595
571
559
547
535
525
503
491
481
469
459
449
439
421
411
401
391
383
369
361
351
345
337
331
323
309
303
297
291
285
275
271
265
261
257
247
243
237
233
227
221
213
197
189
181
171
159
137
125
113
101
87
73
59
31
19
5
-6
-20
-42
-52
-62
-68
-76
-88
-90
-94
-94
-96
-94
-94
-88
-82
-78
-72
-66
-54
-46
-38
-30
-24
-18
-12
-2
1
5
7
9
9
7
5
3
0
-12
-18
-24
-30
-38
-46
-54
-68
-74
-82
-88
-94
-104
-108
-112
-112
-114
-114
-116
-112
-108
-106
-102
-98
-86
-80
-74
-68
-62
-48
-40
-34
-28
-22
-14
-8
1
7
11
17
21
27
31
33
37
39
41
41
43
43
41
41
39
33
31
27
23
19
15
9
0
-4
-10
-14
-20
-30
-34
-40
-42
-46
-52
-54
-56
-58
-60
-60
-60
-62
-62
-62
-62
-62
-64
-64
-66
-66
-68
-70
-72
-76
-76
-78
-80
-82
-84
-84
-84
-82
-82
-78
-74
-72
-68
-66
-60
-56
-48
-44
-40
-36
-34
-30
-28
-28
-28
-30
-32
-36
-44
-50
-56
-62
-70
-84
-92
-100
-106
-114
-126
-130
-136
-138
-142
-142
-144
-142
-138
-136
-132
-128
-114
-106
-98
-88
-78
-68
-58
-32
-18
-6
5
17
43
61
77
81
83
125
147
167
155
143
175
205
293
351
409
433
459
621
723
827
953
1081
1211
1341
1593
1833
2075
2163
2253
2333
2255
2177
2089
2001
1649
1297
499
233
-34
-198
-362
-424
-370
-316
-226
-138
-114
-108
-102
-80
-60
-36
-12
7
17
25
33
41
55
61
67
71
73
75
77
79
81
83
85
87
91
97
101
107
111
127
137
145
157
167
181
193
219
233
245
259
271
297
309
319
329
339
347
353
363
367
369
371
373
371
369
365
363
359
351
347
341
337
333
329
325
317
315
311
309
307
307
309
309
311
313
317
321
331
339
347
357
367
389
403
417
433
451
445
465
487
509
533
559
585
639
661
685
715
747
811
843
875
895
917
929
943
975
987
999
1005
1013
1019
1019
1019
1013
1007
999
991
965
975
985
963
943
893
867
841
817
793
731
699
669
637
605
573
543
499
473
449
425
401
361
355
349
337
325
317
307
295
293
289
289
287
289
293
295
299
303
313
319
323
329
333
337
341
349
351
353
355
355
355
353
351
349
345
341
335
323
315
307
297
287
265
253
241
227
213
183
169
153
137
119
103
87
55
41
25
11
-2
-28
-38
-50
-58
-66
-72
-78
-84
-84
-84
-82
-80
-70
-64
-58
-50
-42
-22
-12
-2
7
17
27
37
55
65
73
81
87
97
101
105
107
109
111
111
109
107
105
101
97
89
83
77
71
63
57
49
35
29
21
15
7
-4
-8
-14
-18
-22
-26
-26
-28
-26
-26
-22
-20
-8
0
5
15
23
45
59
71
87
101
99
97
133
153
171
193
215
263
289
313
341
367
405
441
477
493
511
527
543
567
575
583
587
591
589
583
577
567
557
543
529
543
517
493
467
441
387
363
337
313
289
245
225
205
187
169
153
135
101
85
67
49
31
-8
-28
-48
-68
-90
-112
-134
-166
-178
-192
-202
-214
-232
-238
-244
-248
-252
-254
-252
-252
-248
-246
-242
-238
-228
-222
-218
-212
-208
-200
-196
-192
-186
-182
-178
-174
-164
-160
-158
-152
-146
-124
-114
-104
-114
-124
-104
-84
-118
-74
-32
25
81
75
179
283
401
521
775
865
955
1199
1443
1511
1579
1503
1463
1423
1125
829
-14
-344
-674
-904
-1136
-1218
-1302
-1218
-1048
-878
-866
-856
-774
-684
-594
-562
-530
-480
-446
-414
-384
-354
-326
-300
-276
-256
-236
-222
-208
-182
-170
-160
-150
-142
-134
-128
-118
-116
-114
-112
-110
-112
-112
-114
-116
-120
-124
-126
-130
-130
-132
-132
-134
-134
-130
-128
-124
-122
-110
-102
-96
-86
-78
-68
-58
-38
-26
-16
-4
5
25
35
45
53
61
79
87
93
101
107
115
121
135
143
149
157
165
183
193
201
213
223
235
245
271
283
295
309
321
349
363
375
385
397
409
423
445
455
467
475
485
503
509
517
523
529
537
537
539
539
539
535
533
523
515
509
497
487
463
449
435
417
401
399
399
359
337
313
291
267
221
199
177
155
133
93
79
65
51
37
25
11
-12
-22
-32
-40
-50
-66
-72
-80
-88
-96
-102
-110
-126
-134
-142
-150
-160
-176
-182
-190
-196
-204
-214
-218
-222
-222
-224
-222
-220
-212
-204
-198
-188
-180
-156
-142
-130
-116
-104
-88
-74
-48
-34
-22
-10
0
19
27
33
39
45
51
53
55
57
57
57
55
51
49
47
45
43
39
37
33
33
31
29
27
25
25
25
25
23
25
25
25
27
27
29
31
33
37
39
41
43
51
55
57
61
65
75
81
85
89
93
99
103
111
115
117
121
123
125
125
125
125
123
123
121
115
111
107
103
97
89
85
79
75
69
59
55
49
45
39
35
31
21
17
11
7
1
-10
-16
-22
-28
-36
-44
-52
-68
-76
-84
-92
-100
-114
-120
-128
-134
-140
-148
-150
-154
-154
-156
-154
-154
-148
-142
-138
-130
-124
-108
-98
-90
-80
-70
-58
-48
-24
-12
-2
9
19
41
51
59
69
77
93
99
105
111
115
119
123
127
129
131
131
131
129
129
127
125
123
121
117
111
109
107
105
101
97
95
93
91
89
89
87
85
85
85
85
85
87
89
89
91
93
99
105
109
115
121
127
131
149
161
173
167
159
195
215
235
227
217
251
285
377
433
491
503
517
695
805
915
1035
1157
1393
1455
1519
1747
1975
2027
2081
1975
1935
1897
1561
1225
405
71
-262
-492
-724
-804
-886
-812
-630
-450
-418
-386
-260
-190
-120
-62
-4
-24
-30
-38
-18
1
13
23
41
45
49
55
61
73
79
85
91
95
101
105
115
121
127
133
139
153
161
167
175
181
197
205
213
221
229
237
245
259
267
273
279
285
297
301
305
309
311
315
317
321
323
325
327
329
333
337
339
343
347
353
359
373
389
399
409
433
445
459
473
487
519
535
551
567
583
599
615
649
665
681
697
713
743
757
773
785
799
809
821
841
849
857
861
867
869
867
867
863
859
843
831
821
805
791
799
809
765
739
715
689
663
609
581
555
529
503
477
453
405
385
365
345
325
307
295
281
271
261
243
237
231
227
223
221
217
215
215
213
215
215
217
219
219
221
221
221
221
221
221
221
221
219
215
213
211
209
205
199
197
193
191
187
185
181
175
173
171
169
165
161
159
157
157
155
153
151
149
147
145
145
145
143
143
143
145
145
147
149
155
159
163
169
175
187
195
201
209
217
235
243
251
259
265
271
275
281
283
283
281
279
271
263
255
245
233
221
207
179
163
147
131
115
83
69
53
41
27
5
-4
-14
-20
-28
-32
-38
-42
-44
-46
-44
-44
-42
-40
-38
-36
-34
-30
-28
-24
-20
-18
-14
-12
-6
-2
0
3
7
15
21
25
31
37
43
49
65
73
81
89
95
111
119
125
131
137
141
145
149
149
147
145
143
131
123
115
105
95
71
59
45
31
17
3
-10
-36
-48
-60
-70
-80
-96
-102
-108
-110
-114
-114
-114
-110
-104
-100
-92
-86
-66
-54
-42
-28
-16
-2
11
41
57
71
87
101
129
141
153
165
175
189
195
199
201
203
203
201
193
187
179
169
159
139
127
115
103
89
77
65
43
33
23
15
5
-6
-10
-16
-18
-20
-22
-20
-20
-18
-16
-12
-8
1
9
15
23
31
45
55
63
77
89
103
115
113
133
153
139
123
195
249
301
297
291
465
583
701
847
995
1161
1327
1607
1857
2107
2317
2527
2337
2231
2127
2007
1887
1469
1053
109
-242
-594
-690
-788
-804
-722
-642
-594
-546
-534
-522
-510
-488
-466
-442
-418
-382
-366
-352
-336
-322
-292
-276
-262
-248
-236
-222
-208
-180
-166
-152
-136
-122
-90
-88
-86
-68
-52
-32
-14
23
45
67
89
109
153
175
195
211
227
253
265
275
285
293
299
305
313
315
315
315
313
309
305
301
297
293
289
283
275
271
267
265
263
261
261
261
265
267
277
285
291
301
311
323
335
363
357
351
371
389
433
457
483
509
537
563
591
667
703
739
749
759
783
795
809
819
829
839
839
841
837
833
825
819
795
779
765
773
781
733
707
683
655
627
595
563
499
469
439
411
385
347
321
295
271
247
201
191
181
169
157
147
137
123
119
115
115
115
119
123
127
133
137
145
151
167
175
183
189
195
207
213
217
219
221
223
223
221
219
217
213
207
197
189
181
173
165
147
137
127
117
107
97
85
65
55
45
35
25
9
3
-4
-10
-16
-20
-24
-28
-28
-30
-28
-26
-18
-12
-6
1
9
27
37
47
59
71
83
95
119
131
143
155
165
185
193
201
207
213
217
221
225
225
225
223
221
213
207
201
193
185
169
159
149
139
127
117
105
81
69
57
45
33
11
1
-10
-20
-32
-40
-50
-66
-72
-80
-84
-88
-94
-94
-96
-94
-94
-86
-80
-76
-68
-62
-52
-44
-24
-12
-2
9
19
43
55
67
79
89
99
109
129
137
145
153
159
169
173
177
179
179
179
179
173
169
163
157
151
135
127
117
107
95
73
63
51
41
29
19
9
-8
-14
-22
-26
-32
-38
-38
-40
-38
-38
-34
-30
-20
-12
-6
1
9
27
37
45
55
65
81
89
97
105
111
117
123
131
135
137
139
139
139
137
135
133
129
125
121
109
103
95
89
81
65
57
47
39
29
11
3
-4
-12
-22
-28
-36
-50
-54
-60
-64
-70
-76
-78
-82
-82
-84
-82
-82
-80
-76
-74
-68
-64
-52
-42
-34
-24
-16
7
25
41
57
73
71
67
117
119
121
163
205
313
311
307
391
475
589
703
965
1115
1267
1389
1513
1881
2089
2299
2205
2113
2017
1923
1699
1359
1021
673
327
-254
-456
-660
-766
-872
-924
-750
-576
-578
-582
-560
-540
-472
-432
-394
-360
-326
-348
-332
-316
-302
-288
-274
-262
-240
-230
-222
-210
-198
-174
-160
-148
-134
-120
-88
-92
-96
-74
-54
-30
-8
37
61
85
109
133
161
175
189
201
213
223
231
243
247
251
253
255
255
255
253
253
251
249
249
249
249
249
251
253
259
263
267
273
277
291
299
305
313
321
329
337
355
367
377
387
397
423
437
451
467
483
473
493
513
535
559
583
609
661
687
713
737
763
785
799
813
825
837
845
855
867
869
871
871
871
867
861
857
849
841
831
821
795
781
769
773
779
743
721
701
677
655
601
583
567
529
493
453
415
341
303
265
229
193
125
95
65
59
51
31
9
-10
-22
-34
-42
-52
-64
-68
-74
-76
-78
-78
-76
-76
-72
-70
-66
-62
-54
-48
-44
-40
-36
-26
-22
-20
-16
-12
-10
-8
-4
-2
-2
0
0
0
0
0
0
-2
-4
-4
-6
-6
-8
-10
-12
-16
-18
-20
-22
-24
-26
-26
-28
-28
-28
-28
-28
-24
-20
-16
-12
-8
1
7
13
21
27
41
47
53
59
65
71
75
83
85
87
89
89
89
87
85
83
79
75
71
61
57
53
49
43
33
29
23
19
15
13
9
3
1
-2
-4
-6
-10
-12
-14
-16
-18
-22
-24
-26
-28
-30
-32
-34
-38
-38
-38
-38
-38
-34
-30
-26
-20
-16
-10
-4
11
21
31
41
51
69
79
87
95
103
115
119
121
121
121
119
117
105
97
89
79
67
43
31
17
3
-10
-22
-36
-62
-72
-82
-90
-98
-110
-112
-114
-114
-114
-108
-102
-98
-90
-84
-74
-66
-48
-38
-28
-16
-6
11
21
29
37
45
51
57
67
71
75
77
79
83
83
81
81
79
75
73
69
65
59
55
49
37
31
23
15
7
-10
-18
-28
-38
-48
-58
-68
-86
-94
-104
-112
-120
-130
-134
-138
-140
-144
-142
-140
-128
-120
-112
-98
-84
-100
-110
-120
-84
-50
43
53
61
137
211
301
391
597
709
821
935
1049
1259
1307
1355
1557
1759
1793
1829
1713
1661
1611
1303
997
363
-38
-442
-602
-764
-714
-558
-402
-308
-214
-190
-166
-230
-202
-174
-148
-124
-150
-148
-148
-150
-152
-152
-154
-158
-162
-166
-170
-176
-184
-186
-190
-192
-194
-194
-192
-190
-186
-182
-176
-172
-158
-150
-142
-132
-124
-102
-90
-80
-68
-56
-44
-32
-8
5
17
29
41
65
77
87
97
107
127
135
143
151
159
165
171
183
189
193
197
201
211
215
219
223
227
233
237
247
253
259
267
275
291
301
309
321
331
343
353
379
391
403
415
429
457
471
487
501
517
545
559
575
589
605
619
633
657
669
681
689
699
711
715
719
721
723
721
719
703
689
677
693
709
665
667
671
629
589
497
449
403
359
315
275
235
167
173
177
155
131
95
79
63
49
33
21
9
-18
-30
-44
-56
-68
-92
-102
-114
-124
-134
-152
-160
-168
-174
-180
-184
-188
-190
-190
-190
-186
-184
-176
-168
-162
-154
-146
-136
-128
-108
-98
-88
-78
-68
-50
-42
-34
-26
-20
-8
-4
0
3
5
7
7
7
7
5
3
1
-6
-8
-12
-16
-22
-26
-32
-42
-46
-52
-56
-62
-72
-76
-80
-84
-88
-90
-94
-98
-98
-100
-100
-100
-96
-92
-90
-86
-82
-70
-62
-56
-48
-40
-30
-20
0
9
19
29
39
57
67
75
83
89
95
99
105
107
109
109
107
101
97
91
85
79
65
57
47
39
31
23
13
-4
-12
-20
-26
-34
-44
-48
-52
-54
-56
-54
-54
-50
-44
-40
-32
-24
-6
3
13
25
37
61
73
85
97
107
117
127
143
149
155
159
161
163
161
159
155
149
143
135
117
107
95
83
71
45
33
19
7
-4
-28
-38
-50
-60
-70
-76
-84
-96
-98
-102
-102
-104
-100
-96
-94
-88
-84
-76
-70
-54
-44
-36
-26
-18
-2
5
13
21
27
33
39
49
53
55
57
57
57
57
55
53
51
47
45
41
39
35
33
29
27
27
25
25
25
29
33
37
43
49
57
63
83
93
103
117
129
123
143
161
179
197
249
245
241
283
325
379
431
449
531
613
719
825
1063
1179
1295
1389
1483
1697
1911
1999
1923
1849
1767
1685
967
691
415
21
-374
-676
-680
-686
-584
-484
-374
-264
-228
-194
-162
-128
-96
-54
-78
-102
-92
-82
-74
-66
-56
-52
-50
-48
-48
-42
-40
-38
-36
-34
-32
-32
-32
-32
-32
-32
-32
-32
-32
-34
-34
-36
-38
-38
-38
-36
-36
-34
-34
-28
-22
-18
-10
-2
15
29
41
29
17
37
55
101
129
155
167
177
261
305
349
391
435
461
485
509
511
513
525
539
555
559
563
565
567
567
565
563
559
555
551
547
539
535
531
527
523
519
517
517
517
519
521
523
527
529
533
537
543
551
555
561
565
569
577
581
585
587
589
589
589
587
583
579
573
567
551
539
529
515
501
469
473
477
453
431
407
383
335
309
283
257
231
183
161
137
117
97
79
59
25
13
0
-14
-28
-54
-66
-78
-88
-100
-120
-128
-138
-146
-156
-162
-170
-182
-186
-190
-192
-196
-198
-198
-198
-196
-194
-190
-186
-174
-168
-162
-154
-146
-128
-120
-112
-102
-94
-84
-76
-60
-52
-46
-40
-34
-24
-20
-16
-14
-12
-10
-10
-10
-10
-12
-14
-18
-24
-28
-32
-38
-44
-56
-62
-68
-74
-82
-88
-96
-112
-118
-126
-132
-140
-154
-160
-166
-170
-174
-180
-180
-182
-180
-180
-176
-172
-160
-152
-144
-134
-124
-100
-86
-74
-60
-46
-32
-18
5
17
29
39
47
59
63
67
69
69
63
59
53
47
39
31
21
0
-12
-24
-36
-50
-76
-88
-102
-114
-128
-140
-152
-176
-186
-196
-204
-214
-228
-234
-240
-244
-248
-254
-254
-254
-252
-250
-244
-240
-228
-218
-210
-198
-188
-162
-146
-132
-116
-100
-84
-68
-52
-26
0
15
31
61
75
87
97
107
117
125
135
139
143
145
147
147
147
147
147
145
145
145
145
147
147
149
151
157
161
165
171
175
183
187
191
195
197
199
201
199
197
195
191
187
175
167
159
151
141
123
115
105
97
87
81
73
61
57
53
51
49
49
53
55
61
65
75
83
99
111
121
137
151
149
169
189
213
237
227
257
287
325
363
409
457
571
635
701
747
795
951
1037
1125
1215
1305
1367
1429
1817
1867
1917
1855
1795
1699
1343
987
551
117
-568
-780
-992
-1022
-1054
-954
-854
-604
-492
-382
-394
-408
-346
-294
-244
-210
-178
-174
-170
-134
-116
-98
-88
-78
-58
-50
-42
-34
-28
-22
-18
-12
-10
-8
-8
-8
-10
-12
-14
-16
-18
-24
-26
-30
-32
-34
-34
-36
-36
-34
-32
-28
-24
-12
-4
1
11
21
33
45
71
87
101
117
131
163
179
193
209
225
255
271
285
299
313
327
339
367
379
391
403
417
445
457
471
485
499
513
527
555
569
583
597
611
639
651
665
677
691
713
723
733
741
751
757
765
775
777
779
779
781
777
773
769
761
755
745
737
715
703
691
675
661
629
627
625
605
587
545
523
501
477
455
433
413
373
359
343
329
315
289
277
265
255
245
237
227
211
203
195
187
177
161
153
143
133
123
113
103
81
71
59
47
35
15
5
-6
-14
-24
-42
-48
-56
-62
-68
-74
-80
-90
-94
-100
-104
-108
-116
-120
-124
-128
-134
-136
-140
-148
-150
-152
-154
-156
-156
-154
-154
-150
-146
-136
-130
-124
-114
-106
-96
-88
-68
-58
-48
-38
-28
-10
-2
5
11
15
19
23
25
25
23
19
15
5
0
-8
-16
-26
-44
-54
-64
-72
-82
-90
-98
-114
-120
-128
-132
-138
-148
-150
-154
-156
-160
-162
-164
-168
-168
-170
-172
-174
-178
-180
-182
-182
-184
-188
-188
-188
-188
-190
-188
-188
-186
-182
-180
-176
-174
-168
-164
-160
-156
-152
-148
-144
-136
-132
-130
-128
-126
-122
-120
-120
-120
-120
-122
-124
-128
-130
-134
-138
-144
-154
-160
-168
-174
-182
-198
-204
-212
-218
-226
-232
-240
-250
-252
-256
-258
-260
-258
-254
-252
-246
-242
-234
-226
-206
-194
-182
-168
-156
-126
-108
-92
-88
-84
-48
-30
-12
7
27
49
69
113
137
159
183
205
247
261
275
287
299
309
317
327
329
331
329
325
313
305
295
283
269
241
225
207
199
191
169
147
105
87
69
53
37
9
-2
-14
-24
-34
-42
-50
-60
-62
-64
-62
-60
-56
-48
-40
-32
-24
5
-2
-12
13
39
39
37
131
135
137
203
269
453
573
693
825
957
1109
1263
1667
1793
1921
2121
2323
2331
2195
2061
1803
1547
1219
891
181
-54
-290
-442
-594
-654
-446
-240
-250
-262
-232
-226
-220
-196
-172
-146
-120
-124
-114
-104
-94
-86
-68
-58
-50
-42
-34
-26
-18
1
13
23
35
45
67
79
91
103
115
135
145
153
161
167
171
175
179
179
177
175
171
163
157
149
143
135
129
121
107
103
97
93
89
87
89
89
93
95
109
117
125
137
147
161
173
201
217
233
249
265
283
301
319
337
353
371
387
421
437
455
473
491
529
549
571
593
615
663
689
715
733
753
787
821
889
923
959
979
999
1047
1055
1063
1075
1089
1097
1107
1115
1115
1115
1111
1107
1091
1079
1069
1053
1037
1043
1051
1001
973
947
927
907
841
805
771
733
697
625
587
551
517
483
451
419
401
379
355
335
313
273
257
241
227
211
199
185
161
151
139
131
123
111
107
101
99
97
95
97
97
101
103
107
111
121
127
133
139
145
157
163
169
175
179
185
189
197
201
203
205
207
211
211
211
209
207
203
201
197
193
187
183
177
163
157
149
141
133
117
109
101
95
87
81
75
65
63
59
59
57
57
61
63
67
71
81
87
93
99
105
111
115
125
129
133
135
135
135
133
131
127
121
115
109
93
85
75
67
57
37
27
17
9
0
-8
-16
-28
-34
-40
-42
-46
-50
-50
-52
-50
-50
-44
-40
-38
-34
-30
-26
-22
-12
-8
-6
-2
1
5
7
7
7
7
7
5
0
-2
-6
-10
-14
-24
-28
-34
-38
-44
-54
-58
-64
-68
-74
-78
-82
-90
-92
-96
-100
-104
-110
-112
-116
-118
-122
-124
-128
-132
-132
-134
-134
-136
-136
-134
-134
-132
-130
-124
-120
-116
-112
-108
-102
-98
-88
-82
-76
-70
-66
-54
-48
-44
-38
-34
-30
-26
-18
-14
-10
-6
-4
0
1
3
3
3
3
1
-2
-6
-10
-14
-20
-34
-42
-52
-60
-70
-90
-98
-108
-116
-126
-132
-140
-148
-150
-154
-152
-152
-144
-134
-124
-140
-158
-134
-112
-120
-76
-32
-22
-14
115
197
279
375
469
675
771
869
895
923
1141
1359
1389
1325
1263
1125
987
507
345
181
-82
-348
-444
-540
-906
-662
-420
-438
-458
-436
-416
-398
-360
-324
-256
-268
-280
-266
-254
-242
-230
-206
-198
-190
-184
-178
-164
-158
-154
-148
-144
-140
-138
-132
-130
-128
-126
-126
-126
-124
-124
-124
-124
-122
-120
-120
-116
-114
-108
-104
-92
-82
-74
-64
-54
-26
-34
-44
-24
-4
19
41
95
107
119
161
201
287
329
369
377
385
431
433
437
449
461
469
477
485
487
491
491
493
491
489
489
487
487
487
487
491
493
497
503
511
527
539
551
567
583
575
567
615
641
669
679
691
769
811
855
899
943
979
981
983
995
1009
1017
1027
1029
1023
1019
1007
997
1045
1021
997
985
973
931
891
807
765
723
683
645
569
533
497
463
431
409
385
363
343
323
307
289
269
257
245
233
221
201
193
183
175
165
159
151
137
131
125
121
115
107
105
103
103
101
101
105
107
111
115
121
127
141
151
159
169
179
199
211
221
231
241
251
259
273
279
283
287
289
287
283
277
271
263
241
227
213
197
181
181
179
129
105
79
55
31
1
-12
-28
-40
-54
-64
-74
-88
-92
-98
-100
-102
-104
-102
-100
-98
-96
-92
-88
-80
-76
-72
-68
-64
-58
-54
-50
-48
-46
-42
-40
-40
-40
-40
-40
-40
-40
-40
-42
-42
-44
-48
-48
-50
-50
-52
-54
-56
-60
-60
-62
-64
-66
-72
-74
-78
-80
-84
-92
-96
-102
-106
-110
-116
-122
-132
-136
-142
-146
-152
-162
-166
-170
-172
-176
-178
-180
-182
-180
-180
-178
-178
-172
-168
-164
-158
-154
-144
-136
-130
-122
-116
-108
-102
-90
-82
-76
-68
-62
-50
-44
-38
-32
-28
-24
-20
-12
-8
-6
-4
-2
0
1
1
1
1
-2
-4
-6
-8
-12
-16
-20
-30
-36
-42
-48
-54
-66
-72
-78
-84
-92
-98
-104
-114
-118
-124
-128
-134
-140
-142
-146
-148
-150
-152
-154
-156
-156
-156
-154
-154
-152
-148
-146
-142
-138
-132
-126
-120
-114
-108
-96
-84
-96
-74
-52
-66
-80
1
-10
-24
49
123
227
329
561
685
809
925
1041
1445
1539
1633
1637
1641
1449
1331
1213
913
615
291
-32
-474
-628
-784
-834
-886
-498
-512
-528
-518
-510
-504
-500
-460
-434
-410
-394
-380
-350
-334
-318
-314
-310
-278
-248
-218
-214
-210
-190
-172
-132
-106
-80
-62
-46
-16
-2
11
23
35
47
57
73
81
87
93
97
103
105
105
105
105
101
99
95
91
85
79
73
61
55
47
41
35
21
15
9
5
1
0
-4
-4
0
1
7
11
29
41
53
69
83
75
67
111
135
159
185
211
265
297
327
357
385
443
471
501
527
555
579
605
657
681
705
727
751
777
791
807
817
829
837
845
855
857
859
857
855
845
837
831
819
809
783
769
755
739
723
717
711
671
651
631
611
593
555
537
519
501
485
467
451
419
401
385
361
337
305
289
273
259
243
213
201
187
175
163
153
141
125
119
111
107
103
99
99
99
101
101
105
107
115
121
125
129
133
141
145
147
149
149
149
149
147
145
141
137
133
123
119
113
109
103
95
93
89
87
85
85
85
87
89
91
95
99
107
111
113
117
119
121
121
121
119
115
111
107
93
85
75
67
57
35
25
13
3
-6
-16
-26
-40
-44
-50
-52
-56
-58
-56
-54
-50
-46
-40
-36
-26
-20
-14
-8
-2
5
7
9
9
9
3
0
-4
-10
-18
-26
-36
-54
-64
-74
-82
-92
-106
-110
-116
-118
-120
-118
-116
-108
-100
-92
-82
-72
-46
-32
-20
-6
7
33
45
55
65
75
83
89
97
99
99
97
95
87
81
75
69
61
53
45
29
23
15
9
1
-6
-10
-14
-14
-16
-18
-16
-14
-12
-10
-6
-4
1
5
9
13
17
23
27
31
35
37
41
43
49
53
57
61
63
71
75
79
83
87
91
95
103
107
109
111
111
111
111
109
105
101
89
81
71
61
49
37
23
-4
-20
-36
-52
-68
-100
-114
-128
-140
-152
-160
-170
-188
-190
-194
-190
-186
-176
-196
-216
-196
-178
-202
-158
-114
-52
7
-14
-36
163
299
435
599
763
1063
1337
1613
1811
2011
1953
1895
1755
1677
1601
1255
909
103
-220
-546
-656
-768
-806
-722
-638
-522
-406
-384
-364
-300
-266
-234
-212
-190
-236
-224
-214
-204
-196
-190
-184
-178
-176
-174
-172
-170
-166
-166
-166
-166
-168
-172
-174
-176
-178
-180
-182
-184
-186
-186
-186
-182
-180
-172
-164
-156
-146
-136
-122
-110
-78
-84
-90
-64
-40
13
41
67
93
119
131
141
169
181
191
199
207
217
221
223
223
223
221
221
219
217
215
215
213
215
217
219
223
227
241
251
259
271
281
295
307
335
351
367
383
399
415
435
455
475
495
535
551
567
581
595
607
619
639
647
655
659
665
671
671
671
667
663
657
651
631
619
607
591
577
589
567
547
523
499
447
421
395
365
333
301
269
209
193
175
151
125
81
73
63
51
39
31
21
11
9
5
7
7
15
23
29
39
47
71
83
95
109
123
137
149
175
189
201
213
223
241
249
255
261
265
267
269
271
271
269
265
261
253
247
241
235
229
223
215
199
193
185
179
171
157
151
143
137
131
119
115
109
105
99
95
91
85
83
79
79
77
79
81
83
87
89
95
101
115
123
131
141
151
171
181
191
201
211
231
239
247
253
259
263
267
271
271
271
269
265
257
251
243
235
227
219
209
191
183
173
163
153
137
129
121
115
109
99
95
91
89
85
83
81
79
79
79
81
81
85
87
89
93
97
101
105
115
121
127
135
141
159
169
179
191
201
225
237
249
261
273
285
295
313
321
327
331
335
335
333
329
321
313
303
291
263
271
277
251
225
171
145
117
91
65
55
45
19
9
-2
-10
-18
-28
-30
-34
-34
-36
-36
-34
-34
-32
-32
-32
-32
-34
-36
-40
-44
-48
-60
-66
-72
-80
-88
-96
-104
-118
-124
-132
-138
-144
-154
-156
-160
-162
-164
-164
-162
-160
-156
-154
-150
-146
-134
-128
-122
-114
-106
-88
-76
-66
-56
-48
-36
-24
7
19
31
33
33
79
67
53
95
137
261
219
175
301
425
591
757
1127
1301
1477
1783
2089
2401
2407
2415
2243
2073
1781
1489
633
281
-72
-322
-572
-776
-752
-730
-574
-420
-446
-454
-462
-452
-442
-422
-404
-372
-370
-368
-360
-352
-336
-326
-318
-310
-302
-292
-284
-268
-258
-250
-240
-230
-212
-202
-192
-182
-174
-164
-154
-138
-128
-120
-112
-104
-90
-82
-74
-66
-60
-46
-36
-28
-20
-12
-2
7
27
39
49
61
71
95
109
121
133
145
159
171
195
207
219
231
241
263
273
283
293
303
321
331
339
349
357
365
373
385
393
401
407
415
427
433
441
447
453
459
465
479
485
491
497
505
517
523
531
537
543
555
559
565
569
573
575
579
581
579
579
575
573
563
555
549
539
531
521
511
489
477
465
453
441
415
401
389
379
367
345
335
323
313
301
291
281
263
255
245
237
227
209
201
191
183
173
165
155
137
127
117
109
99
79
71
61
51
41
33
23
5
-2
-10
-18
-26
-40
-46
-54
-58
-64
-74
-76
-80
-80
-82
-80
-80
-76
-72
-68
-60
-54
-36
-26
-16
-4
7
21
33
59
73
87
99
111
133
141
149
155
161
165
165
163
159
153
145
135
113
99
83
87
89
43
19
-4
-28
-54
-78
-104
-142
-158
-174
-186
-198
-218
-222
-228
-228
-230
-224
-216
-210
-198
-188
-174
-160
-126
-124
-124
-98
-74
-22
1
25
47
69
79
89
115
127
137
147
155
165
169
173
175
177
175
175
173
171
167
165
161
153
149
145
141
135
127
123
117
113
109
105
99
91
87
81
77
73
65
61
55
51
45
39
33
23
17
9
3
-2
-16
-22
-30
-36
-44
-56
-60
-66
-70
-74
-76
-78
-78
-74
-72
-66
-62
-46
-34
-24
-12
0
13
25
55
69
83
97
109
131
139
147
153
159
161
159
157
153
147
139
131
109
97
85
73
59
33
21
7
-2
-14
-22
-30
-44
-48
-52
-54
-56
-56
-54
-52
-48
-44
-36
-30
-24
-18
-14
-6
0
11
19
27
35
41
61
69
75
87
97
113
127
155
151
147
171
195
167
211
255
317
379
347
461
575
719
865
1027
1191
1473
1711
1949
2127
2305
2183
2101
2021
1941
1861
1501
1143
303
-50
-404
-540
-678
-770
-710
-652
-566
-480
-476
-472
-458
-438
-418
-392
-366
-324
-312
-302
-288
-276
-250
-238
-228
-218
-208
-198
-190
-172
-164
-156
-148
-140
-124
-114
-106
-98
-90
-80
-72
-54
-44
-36
-28
-20
-6
1
7
13
17
23
25
27
29
29
29
29
27
25
23
21
19
15
15
15
15
15
17
19
25
31
35
43
49
67
77
87
99
111
139
155
171
171
171
189
207
245
267
287
309
331
377
399
423
447
473
497
523
573
597
621
643
667
695
709
723
733
745
761
765
771
771
773
769
767
755
745
737
725
715
685
669
653
649
647
625
605
561
539
517
495
475
435
417
399
365
349
331
301
289
275
263
251
229
219
209
201
193
179
173
167
163
159
157
153
151
151
149
149
147
149
149
149
151
151
151
151
151
151
149
147
145
141
137
133
129
123
111
105
99
93
85
79
71
57
51
43
37
31
23
21
17
17
15
17
17
23
29
33
41
49
67
77
87
99
109
131
143
155
165
175
185
195
211
217
223
227
231
237
239
239
239
237
235
231
223
219
213
207
201
189
181
173
167
159
145
137
129
123
115
109
101
89
83
77
73
67
57
55
51
47
43
41
39
33
31
29
29
27
25
25
23
23
23
25
25
27
29
31
35
37
45
51
55
61
67
81
89
95
103
109
117
123
135
139
143
145
147
149
147
145
141
135
129
123
107
97
87
77
65
41
29
17
5
-6
-28
-36
-46
-54
-64
-70
-78
-90
-94
-100
-102
-106
-110
-110
-110
-110
-112
-110
-110
-110
-108
-108
-106
-106
-104
-102
-102
-100
-100
-98
-96
-96
-94
-94
-92
-92
-88
-86
-84
-82
-80
-76
-74
-72
-70
-68
-66
-66
-66
-66
-66
-68
-70
-74
-76
-80
-82
-86
-94
-96
-100
-102
-104
-104
-106
-108
-104
-102
-100
-100
-86
-72
-58
-62
-68
-72
-78
-6
-34
-62
0
61
243
363
481
617
753
907
1061
1401
1547
1695
1893
2091
2179
2087
1995
1771
1549
947
615
285
71
-144
-286
-428
-520
-502
-484
-390
-296
-276
-282
-288
-276
-266
-250
-236
-210
-204
-200
-196
-192
-182
-178
-176
-172
-170
-166
-162
-160
-158
-156
-152
-150
-142
-138
-134
-128
-124
-114
-108
-104
-98
-92
-86
-82
-72
-68
-64
-60
-56
-48
-44
-40
-36
-34
-28
-24
-22
-18
-16
-12
-10
-4
0
1
5
7
13
17
19
25
29
33
37
49
57
63
71
79
99
111
121
135
147
179
177
173
193
211
233
253
299
323
347
371
395
445
471
497
523
549
575
601
653
677
703
727
753
801
823
845
859
873
887
901
923
931
939
941
945
949
945
943
935
927
899
909
921
897
873
879
885
813
769
727
679
631
507
441
375
319
263
245
227
143
107
69
37
5
3
-2
-8
-20
-32
-46
-48
-52
-52
-52
-50
-48
-38
-30
-24
-14
-6
11
23
33
43
53
63
73
91
99
105
113
119
127
131
133
135
135
135
133
131
129
125
121
117
107
101
95
89
81
67
61
53
45
37
31
23
9
3
-4
-10
-18
-30
-36
-44
-50
-58
-70
-76
-84
-90
-98
-104
-112
-126
-132
-140
-146
-152
-166
-170
-176
-180
-186
-188
-192
-198
-200
-202
-202
-204
-204
-202
-202
-200
-200
-198
-198
-198
-196
-196
-196
-198
-200
-202
-204
-206
-210
-216
-220
-224
-228
-234
-238
-244
-256
-260
-266
-272
-278
-288
-292
-298
-302
-308
-310
-314
-320
-322
-324
-324
-324
-322
-318
-316
-310
-306
-294
-286
-278
-268
-258
-246
-236
-212
-198
-184
-170
-156
-128
-114
-100
-86
-74
-60
-48
-26
-16
-6
1
9
23
29
33
37
39
41
41
41
41
39
37
35
27
23
19
15
11
1
-2
-8
-14
-20
-24
-30
-40
-44
-50
-54
-60
-68
-72
-76
-80
-84
-88
-90
-92
-94
-96
-96
-98
-96
-96
-96
-94
-92
-88
-86
-84
-80
-78
-74
-72
-66
-62
-60
-56
-52
-44
-38
-32
-26
-20
-14
-10
7
21
33
45
57
43
67
89
73
57
145
209
273
251
229
349
467
771
939
1109
1273
1437
1943
2085
2229
2279
2329
2137
1945
1779
1493
1209
853
499
-186
-380
-574
-700
-828
-908
-772
-636
-636
-636
-606
-576
-510
-426
-342
-264
-188
-42
21
85
101
115
153
189
149
147
143
149
155
153
151
147
139
131
119
111
101
93
83
73
63
43
35
25
17
9
-4
-8
-14
-18
-22
-24
-28
-28
-26
-26
-24
-22
-12
-6
0
7
15
35
47
59
73
85
101
115
147
163
179
187
195
235
255
273
295
315
331
347
377
389
403
415
429
453
463
475
485
495
503
513
529
535
543
549
555
565
569
573
575
579
587
589
591
593
595
597
599
603
603
605
605
607
607
607
607
605
603
599
595
585
577
571
561
553
533
521
509
495
483
455
439
425
409
395
367
337
323
309
295
281
255
243
229
219
207
195
183
163
153
143
133
123
107
99
91
83
75
63
57
51
47
41
37
33
27
25
21
19
17
15
17
17
17
17
19
21
29
33
37
43
49
63
71
79
89
97
117
129
139
151
161
171
181
201
209
217
225
231
239
241
243
243
241
239
235
225
217
209
199
189
167
155
143
131
117
105
91
65
53
41
29
17
-6
-16
-28
-38
-48
-66
-74
-82
-88
-96
-102
-108
-116
-118
-120
-120
-120
-118
-114
-112
-108
-104
-98
-92
-80
-72
-66
-58
-52
-38
-30
-24
-18
-12
0
5
9
13
17
23
27
35
39
43
49
53
63
69
73
79
83
89
95
105
111
115
119
121
125
125
125
125
123
115
109
103
95
87
79
69
47
37
25
15
3
-16
-24
-32
-40
-48
-52
-58
-64
-64
-64
-62
-62
-56
-50
-46
-40
-36
-22
-16
-10
-4
0
5
9
17
21
23
25
25
25
25
23
21
17
15
11
3
0
-6
-10
-16
-26
-30
-36
-40
-46
-50
-56
-64
-68
-74
-78
-84
-94
-98
-104
-108
-112
-118
-120
-124
-126
-128
-126
-126
-120
-116
-114
-106
-98
-82
-66
-52
-62
-72
-44
-18
-22
25
71
75
77
219
309
399
513
627
899
1051
1205
1361
1519
1719
1921
2269
2379
2489
2347
2207
1923
1765
1609
1231
853
437
23
-510
-668
-826
-842
-860
-718
-616
-514
-496
-480
-410
-372
-336
-308
-280
-286
-294
-260
-244
-228
-206
-184
-158
-144
-132
-118
-104
-90
-76
-50
-36
-24
-12
0
23
35
45
55
65
81
89
97
103
107
111
115
119
119
119
117
115
107
103
97
91
83
77
69
51
41
31
21
11
-8
-16
-26
-34
-44
-52
-60
-74
-78
-82
-84
-86
-86
-82
-80
-74
-70
-52
-40
-30
-16
-2
13
29
23
45
67
91
115
169
189
209
237
263
293
323
389
425
461
499
537
613
629
647
671
695
701
711
723
731
739
741
743
741
737
733
723
715
693
679
665
647
631
629
627
583
561
539
515
493
445
421
399
379
357
313
293
271
251
231
213
193
159
145
129
117
103
79
71
61
53
45
39
33
27
25
23
23
23
27
31
33
39
43
53
59
63
69
73
79
83
93
97
99
103
105
109
111
111
111
111
111
111
107
105
103
101
97
89
85
79
73
67
61
55
39
33
25
17
9
-6
-14
-22
-30
-38
-50
-56
-62
-66
-72
-76
-80
-86
-88
-90
-90
-92
-94
-94
-94
-94
-94
-94
-96
-96
-96
-96
-96
-98
-98
-98
-100
-100
-100
-102
-102
-102
-102
-102
-102
-102
-102
-102
-102
-102
-102
-102
-102
-102
-102
-102
-102
-102
-100
-98
-98
-96
-96
-92
-90
-88
-84
-80
-72
-66
-62
-56
-50
-44
-38
-24
-16
-10
-2
3
15
21
27
31
35
39
43
47
49
51
51
51
49
47
45
43
41
35
33
29
27
23
19
15
9
5
1
0
-4
-12
-14
-18
-20
-24
-26
-30
-34
-36
-38
-40
-42
-42
-42
-42
-40
-40
-38
-36
-30
-24
-20
-14
-8
5
15
23
33
43
65
77
87
99
111
123
133
153
163
173
181
187
199
203
205
207
207
207
205
195
189
183
175
165
145
135
123
113
101
81
71
61
53
45
39
33
25
25
23
29
33
39
51
61
53
43
39
35
105
157
209
159
109
291
427
563
731
901
1255
1567
1879
2073
2269
2327
2387
2197
1961
1727
1407
1089
367
25
-318
-472
-626
-686
-748
-634
-500
-366
-210
-54
145
237
327
261
195
259
229
197
191
183
179
173
147
139
131
121
109
91
81
69
61
51
43
33
19
13
7
3
-2
-8
-8
-10
-10
-10
-8
-8
-4
0
1
5
9
19
25
31
37
43
57
65
73
81
89
97
105
121
129
135
143
151
165
173
179
187
193
199
205
219
225
231
237
243
257
265
273
281
289
309
321
333
347
359
373
387
419
417
415
435
457
503
527
551
575
601
625
649
695
715
737
749
761
791
803
815
825
837
855
863
871
877
883
887
891
895
895
897
895
895
887
881
877
869
861
849
837
805
815
825
801
777
771
733
695
653
613
525
479
433
387
343
299
253
173
181
187
185
181
157
149
141
139
135
135
135
135
137
139
143
145
153
157
159
163
165
167
169
169
169
167
165
163
157
153
147
143
137
125
119
113
107
99
93
85
73
67
61
55
49
39
35
31
27
23
21
17
13
11
9
9
7
5
5
5
5
5
7
7
7
9
9
11
13
15
17
19
21
23
29
33
35
37
39
43
45
51
55
57
59
61
63
63
63
63
63
63
61
59
57
55
53
49
45
43
39
37
33
27
25
21
19
15
11
7
1
-2
-8
-12
-18
-28
-34
-40
-46
-54
-68
-74
-82
-88
-96
-102
-110
-120
-124
-128
-130
-134
-134
-132
-132
-128
-124
-116
-110
-94
-82
-72
-58
-46
-16
0
15
31
47
65
81
113
129
143
157
169
189
197
205
211
215
219
217
215
211
205
199
191
173
161
149
137
125
97
83
69
55
41
29
15
-10
-22
-36
-48
-60
-82
-92
-102
-112
-122
-138
-146
-154
-160
-168
-172
-178
-188
-190
-192
-192
-194
-192
-190
-188
-182
-178
-172
-166
-150
-140
-130
-118
-106
-80
-66
-52
-36
-22
7
11
15
35
53
77
101
141
141
139
173
205
293
351
407
393
379
479
581
825
957
1091
1203
1315
1861
1939
2019
1971
1925
1823
1483
1145
743
341
19
-302
-754
-838
-922
-886
-852
-546
-534
-524
-468
-412
-366
-320
-236
-182
-128
-88
-50
25
57
89
91
93
103
113
137
145
153
157
159
157
155
151
145
137
117
105
93
79
65
49
33
3
-12
-28
-42
-56
-82
-92
-104
-112
-120
-124
-130
-136
-134
-134
-130
-126
-112
-102
-94
-82
-72
-44
-28
-14
1
17
35
51
69
89
107
125
143
185
203
219
235
249
265
281
313
329
345
361
375
405
421
437
451
467
499
515
531
545
561
575
589
615
627
639
649
659
675
681
687
689
691
691
691
683
677
671
661
651
625
633
643
621
601
551
539
527
493
459
421
383
307
269
229
191
153
81
75
69
63
55
43
29
11
7
1
1
0
0
3
5
9
13
19
23
35
41
45
49
51
55
55
55
55
53
45
39
33
27
19
11
3
-12
-18
-26
-34
-42
-54
-58
-62
-64
-68
-70
-72
-72
-70
-70
-68
-66
-62
-60
-58
-56
-54
-52
-52
-52
-52
-54
-56
-58
-62
-64
-66
-68
-70
-74
-74
-76
-76
-78
-76
-76
-72
-70
-68
-64
-62
-56
-52
-50
-46
-44
-42
-42
-42
-42
-44
-48
-52
-62
-68
-76
-84
-92
-112
-122
-134
-146
-158
-170
-182
-206
-216
-228
-236
-246
-262
-268
-274
-276
-278
-278
-274
-270
-262
-256
-244
-234
-208
-192
-176
-176
-178
-130
-104
-78
-52
-28
-10
5
33
45
57
65
73
85
87
89
87
85
83
79
67
59
51
43
35
19
11
3
-2
-10
-22
-26
-30
-32
-34
-34
-34
-30
-26
-22
-16
-10
3
13
23
35
47
61
75
105
103
99
119
137
179
203
227
253
277
329
355
397
413
427
443
467
475
483
487
491
493
489
487
479
473
463
455
431
417
405
391
377
347
331
315
299
283
253
239
223
209
193
179
165
137
123
109
97
83
59
49
39
31
21
15
7
-4
-6
-8
-4
-2
7
19
29
17
5
-26
13
51
105
157
147
137
297
413
531
663
795
1067
1337
1607
1715
1823
1879
1935
1791
1707
1623
1255
889
25
-238
-502
-646
-790
-782
-776
-572
-512
-452
-454
-458
-440
-418
-396
-374
-354
-350
-342
-334
-326
-318
-310
-302
-288
-280
-274
-266
-260
-246
-236
-228
-218
-208
-198
-188
-164
-150
-138
-124
-112
-86
-72
-58
-44
-32
-6
5
17
29
41
51
61
81
91
99
107
115
129
135
141
147
151
157
161
167
171
173
175
177
179
181
181
181
181
179
179
177
177
177
177
177
179
181
183
187
191
203
213
221
233
243
257
269
299
295
291
313
335
405
431
455
481
533
557
583
607
631
653
675
701
715
729
739
749
763
765
769
767
767
763
761
745
731
719
729
741
699
673
649
637
625
591
557
485
447
409
371
333
261
255
247
225
203
193
181
169
161
151
147
141
131
127
123
121
119
115
115
113
113
111
109
107
103
101
99
97
93
89
87
83
81
79
73
71
69
67
65
65
63
59
57
55
53
49
43
39
33
29
23
19
13
0
-6
-14
-20
-28
-42
-48
-56
-62
-68
-78
-82
-88
-90
-94
-96
-98
-100
-100
-102
-102
-102
-100
-100
-100
-98
-98
-98
-98
-98
-98
-100
-100
-102
-106
-106
-108
-110
-112
-114
-114
-116
-116
-118
-118
-118
-116
-114
-114
-112
-110
-104
-102
-100
-96
-94
-92
-90
-84
-82
-80
-78
-76
-70
-68
-66
-62
-60
-58
-56
-50
-48
-46
-42
-40
-34
-32
-30
-28
-26
-26
-26
-26
-26
-28
-30
-32
-38
-42
-46
-50
-54
-62
-64
-68
-70
-74
-74
-76
-74
-70
-68
-64
-60
-48
-40
-32
-24
-16
1
11
19
27
35
41
47
57
61
63
65
65
63
61
57
53
47
43
37
25
19
13
7
1
-8
-12
-18
-20
-24
-28
-28
-30
-30
-32
-30
-30
-28
-26
-26
-24
-22
-18
-16
-14
-12
-10
-8
-6
0
1
3
7
9
15
17
19
21
23
25
27
27
27
25
25
23
19
17
15
13
9
5
1
-2
-4
-6
-2
0
7
19
29
17
5
-58
-22
13
65
117
121
123
303
417
533
661
791
1053
1167
1281
1487
1695
1863
1839
1815
1829
1843
1493
1145
245
-238
-724
-960
-1196
-1392
-1324
-1256
-1108
-960
-818
-678
-514
-486
-458
-400
-342
-214
-180
-148
-158
-170
-172
-160
-148
-142
-136
-136
-138
-150
-154
-160
-168
-178
-198
-208
-220
-232
-244
-254
-266
-286
-294
-302
-308
-314
-320
-318
-318
-314
-312
-300
-290
-282
-268
-256
-264
-274
-232
-206
-182
-176
-170
-94
-52
-12
31
73
115
157
233
267
301
301
299
341
361
379
393
407
433
445
457
469
483
493
505
527
537
547
555
565
583
589
597
603
609
613
619
627
629
631
631
633
633
631
629
627
627
623
621
617
615
613
611
609
607
605
605
603
601
599
595
593
589
587
583
579
567
559
553
543
533
511
497
485
471
457
441
427
393
379
363
347
329
295
279
263
247
231
203
189
175
163
151
139
127
107
97
87
77
67
51
43
35
29
21
15
9
-2
-6
-10
-12
-14
-18
-16
-16
-14
-12
-2
3
9
17
23
33
41
59
69
79
89
99
119
129
137
145
153
159
165
175
179
181
183
183
181
179
177
173
167
157
151
143
135
125
117
109
91
83
73
65
55
39
33
25
19
13
9
3
-4
-8
-12
-14
-18
-22
-24
-28
-30
-34
-38
-42
-48
-52
-56
-60
-64
-70
-72
-74
-76
-78
-76
-74
-72
-68
-64
-58
-52
-38
-30
-22
-12
-4
11
19
27
35
41
47
53
61
63
65
65
65
61
59
57
53
49
39
33
27
23
17
11
5
-4
-8
-14
-18
-22
-30
-32
-36
-38
-42
-42
-44
-46
-44
-44
-42
-40
-32
-28
-24
-16
-10
3
13
21
31
39
49
59
79
89
97
107
115
129
137
143
147
151
155
157
161
161
159
159
157
151
147
143
139
133
123
117
111
105
99
93
85
71
63
55
47
39
21
13
5
-2
-12
-22
-32
-50
-58
-68
-76
-86
-104
-112
-120
-126
-134
-138
-144
-154
-156
-160
-162
-164
-164
-162
-160
-156
-154
-144
-136
-130
-120
-112
-100
-90
-64
-50
-38
-22
-8
29
35
39
57
75
99
123
123
157
189
237
283
251
335
419
537
655
911
1037
1163
1267
1373
1593
1813
1911
1841
1773
1697
1623
903
463
25
-242
-512
-666
-822
-834
-750
-666
-614
-564
-534
-516
-500
-468
-436
-380
-356
-334
-310
-288
-256
-226
-154
-116
-78
-42
-8
21
45
69
91
113
119
125
147
155
163
169
175
181
183
183
183
181
177
175
171
169
167
165
163
161
161
161
163
163
167
171
173
177
179
183
185
193
195
197
199
201
203
203
203
203
203
203
201
199
199
199
199
199
203
207
209
215
219
233
243
251
261
269
281
291
315
327
339
351
363
387
397
409
419
431
441
453
473
481
491
499
507
521
527
535
539
545
553
553
555
555
555
553
551
539
531
523
513
503
475
459
443
447
451
427
405
357
333
307
281
255
205
183
159
137
115
75
63
49
35
19
7
-4
-26
-34
-44
-52
-60
-72
-76
-80
-84
-88
-92
-96
-102
-104
-108
-110
-114
-122
-126
-130
-134
-140
-150
-156
-164
-170
-178
-184
-192
-204
-210
-218
-224
-230
-238
-240
-242
-242
-242
-240
-238
-228
-220
-212
-200
-190
-164
-150
-136
-120
-104
-88
-72
-40
-26
-12
1
15
37
47
55
63
69
79
83
85
87
89
89
89
91
91
91
93
93
97
101
103
109
113
119
125
139
147
155
165
173
191
201
211
223
233
253
263
273
283
293
303
313
333
343
351
359
367
383
391
399
405
413
419
427
439
445
451
455
459
465
467
469
469
471
469
467
465
461
457
453
449
437
431
425
417
411
399
391
385
379
373
367
361
349
343
337
333
327
315
309
303
297
291
279
273
265
259
251
243
235
219
211
203
195
187
171
165
157
151
145
141
135
129
127
123
123
121
123
125
127
131
133
139
143
153
159
165
171
177
191
199
205
211
217
229
233
237
241
245
247
249
249
249
247
245
241
231
225
217
209
199
189
179
157
145
131
117
103
75
61
45
31
17
-10
-22
-36
-48
-60
-68
-78
-94
-98
-102
-102
-104
-98
-90
-82
-70
-60
-80
-102
-62
-36
-12
21
53
123
151
177
227
275
345
423
503
525
549
621
695
879
985
1093
1209
1325
1549
1597
1647
1871
2095
2133
2171
2045
1997
1949
1613
1279
455
47
-360
-562
-766
-958
-920
-882
-712
-544
-534
-524
-456
-412
-368
-330
-294
-250
-272
-296
-280
-266
-252
-240
-220
-210
-202
-194
-186
-164
-152
-142
-132
-122
-110
-100
-80
-70
-62
-52
-44
-30
-24
-18
-12
-8
-4
-2
0
0
-2
-2
-4
-8
-10
-14
-16
-18
-22
-22
-24
-24
-24
-22
-20
-14
-8
-4
3
11
29
41
51
65
77
105
121
137
141
143
163
181
219
241
261
283
305
347
369
391
413
435
457
479
523
545
567
587
609
653
673
695
715
735
775
791
809
823
839
849
861
879
883
889
891
893
893
887
883
873
863
849
835
859
835
813
801
791
719
681
643
601
561
479
435
393
351
309
269
227
149
115
79
81
83
43
39
35
25
15
9
1
-4
-6
-10
-12
-14
-12
-10
-10
-8
-6
-2
0
5
9
11
15
17
23
25
27
29
31
35
37
37
37
37
37
35
33
31
29
27
23
15
11
5
1
-4
-10
-18
-32
-38
-46
-54
-62
-78
-84
-92
-98
-106
-118
-122
-128
-132
-136
-138
-140
-140
-140
-140
-138
-136
-130
-126
-122
-116
-112
-108
-104
-96
-92
-88
-84
-80
-74
