10653
10721
10886
11049
11137
11136
11079
11015
10991
11051
11219
11471
11729
11893
11911
11819
11712
11674
11717
11783
11790
11685
11466
11172
10872
10639
10531
10555
10664
10779
10836
10818
10753
10685
10657
10695
10803
10948
11062
11082
10994
10860
10774
10799
10919
11061
11153
11160
11087
10957
10809
10699
10693
10813
11008
11170
11206
11104
10933
10789
10736
10787
10918
11075
11180
11156
10982
10737
10570
10603
10828
11108
11278
11257
11093
10901
10773
10745
10802
10913
11035
11111
11089
10965
10801
10693
10709
10846
11035
11188
11242
11178
11027
10867
10790
10853
11032
11227
11322
11264
11093
10908
10797
10793
10886
11044
11217
11340
11344
11207
10984
10799
10762
10895
11114
11286
11317
11205
11030
10900
10889
11006
11199
11380
11468
11425
11274
11089
10964
10969
11110
11319
11480
11500
11364
11155
11001
10990
11116
11299
11445
11502
11465
11356
11204
11056
10984
11047
11235
11449
11553
11476
11269
11070
11005
11097
11269
11408
11436
11343
11170
10985
10865
10864
10986
11167
11296
11281
11113
10875
10688
10645
10755
10955
11144
11237
11194
11030
10815
10643
10597
10698
10895
11084
11166
11105
10950
10808
10775
10874
11047
11195
11242
11174
11029
10867
10745
10708
10785
10962
11166
11282
11227
11017
10775
10652
10719
10920
11121
11208
11153
11006
10840
10715
10675
10745
10914
11109
11217
11157
10949
10716
10607
10689
10909
11139
11261
11225
11058
10829
10632
10550
10631
10850
11099
11236
11178
10959
10717
10604
10691
10925
11175
11309
11270
11084
10845
10657
10600
10695
10895
11101
11207
11158
10982
10776
10649
10660
10793
10975
11126
11189
11143
11009
10839
10714
10702
10813
10973
11058
10985
10778
10564
10480
10576
10784
10981
11077
11056
10956
10832
10731
10695
10752
10890
11042
11111
11046
10883
10722
10660
10723
10869
11025
11134
11159
11085
10928
10752
10649
10682
10832
11004
11092
11055
10935
10807
10728
10725
10801
10943
11097
11174
11099
10887
10654
10550
10635
10836
11007
11048
10969
10854
10778
10754
10767
10813
10910
11050
11165
11165
11010
10763
10563
10526
10663
10867
10994
10958
10790
10601
10510
10566
10730
10923
11074
11144
11123
11020
10870
10746
10733
10865
11083
11251
11253
11076
10821
10628
10584
10688
10875
11064
11178
11164
11014
10800
10645
10651
10818
11031
11149
11105
10943
10769
10666
10664
10750
10890
11028
11092
11033
10873
10710
10653
10734
10889
11015
11054
11012
10921
10803
10680
10601
10628
10778
10980
11107
11072
10899
10701
10595
10635
10792
10987
11133
11153
11020
10783
10557
10466
10559
10771
10977
11070
11026
10890
10738
10640
10643
10750
10915
11050
11081
10999
10867
10778
10791
10913
11113
11342
11539
11637
11601
11477
11377
11404
11563
11749
11827
11734
11501
11199
10884
10594
10382
10314
10407
10592
10740
10761
10673
10575
10565
10664
10823
10969
11048
11035
10936
10794
10686
10682
10794
10957
11069
11061
10935
10758
10618
10589
10697
10898
11083
11131
10994
10744
10530
10468
10565
10738
10894
10987
11009
10951
10812
10635
10522
10565
10758
10984
11096
11031
10848
10656
10542
10533
10627
10802
11004
11143
11137
10990
10801
10696
10733
10864
10988
11037
10998
10900
10783
10695
10691
10804
11000
11179
11237
11144
10963
10796
10720
10754
10870
11016
11124
11131
11017
10844
10724
10748
10906
11097
11205
11177
11039
10856
10698
10626
10683
10871
11117
11298
11317
11173
10969
10834
10837
10963
11142
11297
11367
11317
11160
10965
10837
10860
11033
11267
11440
11475
11370
11192
11029
10960
11021
11175
11330
11382
11285
11090
10906
10828
10880
11014
11153
11232
11213
11093
10903
10713
10601
10615
10737
10898
11016
11037
10956
10818
10693
10654
10732
10885
11017
11040
10935
10772
10651
10641
10737
10888
11026
11093
11051
10903
10710
10575
10584
10741
10954
11102
11110
10990
10812
10654
10578
10612
10743
10903
10992
10942
10773
10596
10530
10609
10767
10894
10927
10875
10783
10691
10625
10611
10677
10820
10982
11075
11044
10904
10734
10615
10596
10674
10811
10948
11015
10966
10810
10626
10521
10562
10727
10922
11043
11038
10921
10754
10612
10555
10613
10764
10934
11025
10973
10799
10603
10505
10569
10761
10976
11103
11085
10941
10744
10587
10536
10607
10760
10913
10982
10925
10768
10588
10474
10483
10608
10791
10943
10988
10895
10706
10517
10434
10502
10674
10840
10901
10838
10706
10594
10562
10626
10765
10938
11078
11107
10982
10740
10506
10418
10530
10770
10991
11070
10981
10784
10578
10449
10451
10587
10802
10992
11048
10932
10710
10513
10457
10565
10764
10940
10998
10909
10723
10541
10469
10552
10738
10909
10958
10861
10678
10499
10386
10361
10429
10583
10786
10954
10994
10880
10687
10543
10531
10639
10789
10907
10960
10943
10850
10695
10544
10495
10607
10830
11020
11047
10901
10691
10559
10570
10686
10816
10887
10872
10779
10639
10507
10454
10529
10714
10922
11041
11009
10849
10648
10505
10477
10571
10745
10926
11034
11012
10862
10655
10504
10497
10646
10864
11015
10996
10810
10563
10403
10414
10568
10754
10862
10851
10759
10649
10569
10543
10580
10685
10830
10948
10959
10835
10635
10472
10437
10537
10703
10847
10914
10893
10798
10659
10527
10474
10550
10729
10906
10950
10809
10555
10343
10300
10448
10701
10937
11076
11107
11062
10992
10955
11009
11191
11472
11748
11888
11819
11581
11300
11094
10999
10967
10925
10834
10704
10560
10427
10330
10309
10393
10566
10747
10836
10781
10621
10454
10374
10415
10551
10726
10873
10931
10865
10699
10522
10443
10517
10700
10868
10913
10807
10613
10435
10354
10400
10551
10739
10874
10883
10757
10567
10429
10429
10565
10763
10930
11001
10955
10806
10602
10424
10366
10472
10697
10914
10998
10909
10716
10546
10496
10586
10758
10912
10964
10882
10711
10550
10494
10575
10740
10888
10940
10880
10746
10600
10497
10480
10566
10725
10883
10957
10915
10796
10683
10638
10672
10763
10881
10997
11061
11022
10869
10673
10558
10608
10796
10997
11082
11008
10833
10661
10573
10605
10748
10953
11139
11224
11167
11006
10838
10759
10805
10945
11104
11203
11186
11050
10856
10717
10731
10907
11143
11299
11298
11170
11009
10898
10864
10905
11007
11143
11243
11220
11039
10770
10558
10515
10636
10817
10939
10952
10874
10750
10621
10528
10516
10611
10771
10895
10885
10729
10514
10373
10392
10567
10806
10989
11027
10900
10670
10453
10356
10418
10594
10786
10907
10915
10823
10678
10544
10481
10526
10662
10816
10902
10869
10735
10571
10461
10461
10571
10740
10883
10917
10815
10634
10480
10443
10535
10688
10814
10854
10802
10681
10538
10434
10432
10556
10754
10918
10955
10855
10694
10564
10517
10548
10630
10735
10822
10832
10724
10534
10378
10382
10571
10839
11021
11019
10857
10643
10484
10427
10468
10577
10710
10811
10820
10722
10564
10446
10450
10585
10772
10900
10889
10741
10536
10380
10345
10435
10590
10738
10823
10826
10751
10624
10492
10425
10471
10613
10761
10812
10726
10562
10430
10403
10475
10588
10684
10736
10727
10642
10492
10344
10299
10416
10646
10854
10917
10813
10629
10479
10432
10486
10603
10737
10839
10857
10761
10587
10430
10390
10495
10676
10821
10849
10755
10597
10448
10367
10386
10500
10659
10777
10780
10659
10483
10358
10350
10447
10581
10681
10714
10680
10593
10476
10377
10357
10459
10657
10851
10928
10836
10632
10437
10366
10457
10660
10867
10972
10916
10720
10478
10317
10324
10493
10722
10882
10892
10762
10575
10430
10387
10455
10595
10739
10813
10773
10633
10466
10370
10405
10559
10749
10872
10857
10702
10477
10293
10248
10366
10584
10788
10884
10852
10735
10596
10476
10402
10400
10492
10650
10785
10787
10625
10389
10241
10295
10530
10801
10948
10900
10700
10468
10317
10309
10430
10613
10766
10817
10745
10590
10426
10324
10329
10438
10603
10739
10768
10664
10485
10338
10318
10447
10670
10896
11050
11088
11016
10892
10821
10911
11188
11550
11812
11836
11627
11326
11086
10961
10902
10833
10729
10607
10483
10349
10212
10124
10156
10322
10544
10695
10696
10566
10394
10274
10252
10335
10499
10692
10826
10815
10636
10376
10192
10207
10421
10704
10890
10878
10692
10452
10291
10283
10415
10609
10772
10838
10790
10657
10495
10374
10351
10447
10618
10773
10821
10729
10547
10371
10288
10329
10468
10642
10776
10804
10694
10486
10290
10228
10351
10593
10814
10896
10819
10652
10489
10397
10395
10482
10632
10788
10864
10803
10632
10467
10433
10565
10774
10918
10907
10768
10601
10493
10471
10514
10602
10724
10852
10917
10850
10649
10421
10318
10422
10681
10934
11039
10962
10781
10611
10527
10548
10659
10829
11000
11086
11019
10819
10608
10535
10670
10943
11192
11278
11169
10943
10726
10616
10652
10805
10998
11138
11159
11054
10880
10723
10650
10683
10797
10935
11024
11004
10860
10650
10485
10462
10591
10784
10914
10902
10760
10561
10394
10322
10369
10517
10702
10828
10822
10679
10481
10341
10334
10454
10629
10771
10813
10734
10562
10380
10289
10353
10546
10758
10861
10802
10623
10427
10310
10313
10431
10620
10808
10906
10848
10640
10381
10216
10242
10443
10699
10863
10847
10671
10433
10260
10237
10371
10592
10789
10867
10793
10605
10390
10242
10224
10341
10535
10707
10765
10683
10520
10392
10392
10523
10702
10816
10800
10665
10485
10338
10278
10321
10444
10602
10728
10765
10694
10549
10407
10348
10407
10553
10706
10783
10746
10619
10475
10392
10411
10515
10640
10710
10680
10559
10407
10301
10295
10392
10542
10675
10728
10680
10552
10401
10300
10301
10405
10558
10669
10668
10547
10375
10249
10240
10352
10529
10692
10777
10757
10645
10494
10375
10350
10434
10579
10704
10731
10635
10456
10281
10200
10264
10453
10676
10813
10792
10626
10416
10281
10287
10416
10585
10705
10721
10630
10476
10331
10265
10315
10453
10601
10675
10638
10521
10392
10317
10328
10417
10545
10650
10670
10573
10393
10222
10156
10237
10419
10605
10708
10696
10594
10461
10356
10328
10395
10530
10667
10727
10672
10530
10385
10318
10365
10494
10638
10724
10709
10597
10438
10310
10285
10382
10556
10711
10763
10682
10512
10345
10264
10308
10451
10619
10729
10731
10636
10504
10408
10391
10444
10525
10583
10590
10544
10457
10358
10285
10278
10357
10496
10629
10679
10609
10452
10298
10236
10307
10474
10644
10727
10679
10530
10362
10267
10294
10433
10613
10740
10745
10613
10400
10206
10124
10193
10370
10560
10668
10651
10534
10387
10283
10277
10384
10582
10800
10941
10932
10782
10601
10540
10687
11005
11348
11563
11586
11451
11247
11047
10887
10784
10733
10705
10639
10483
10251
10038
9961
10068
10300
10523
10627
10582
10437
10276
10175
10184
10315
10523
10711
10779
10683
10478
10280
10192
10244
10387
10543
10648
10664
10585
10440
10298
10242
10313
10475
10628
10677
10594
10429
10271
10190
10214
10329
10490
10632
10688
10623
10462
10288
10200
10253
10427
10638
10781
10784
10641
10426
10255
10225
10348
10542
10684
10697
10597
10465
10382
10384
10457
10572
10697
10787
10791
10685
10510
10364
10335
10437
10595
10707
10717
10640
10527
10427
10372
10387
10485
10637
10766
10788
10681
10516
10406
10421
10541
10688
10795
10839
10823
10747
10615
10473
10402
10469
10657
10860
10956
10897
10739
10598
10562
10646
10798
10939
11000
10951
10820
10683
10630
10701
10854
10991
11020
10922
10750
10590
10510
10542
10674
10853
10992
11009
10875
10653
10458
10384
10445
10580
10710
10790
10804
10747
10626
10476
10370
10375
10489
10623
10661
10557
10372
10229
10219
10345
10530
10680
10731
10674
10540
10391
10292
10290
10384
10522
10632
10658
10587
10455
10321
10251
10283
10410
10576
10698
10710
10607
10445
10308
10260
10313
10430
10548
10611
10592
10501
10381
10293
10286
10374
10526
10669
10721
10632
10425
10199
10082
10147
10360
10599
10729
10695
10538
10357
10239
10224
10307
10448
10585
10645
10582
10421
10257
10202
10302
10500
10675
10727
10631
10447
10268
10178
10219
10371
10562
10696
10707
10596
10433
10306
10271
10329
10444
10567
10649
10646
10542
10374
10225
10185
10284
10468
10633
10687
10602
10415
10208
10071
10071
10212
10425
10593
10625
10511
10331
10190
10150
10205
10307
10408
10471
10465
10378
10249
10168
10226
10433
10684
10829
10776
10565
10328
10191
10200
10319
10478
10613
10675
10629
10476
10275
10130
10121
10251
10429
10541
10528
10416
10281
10195
10193
10272
10407
10551
10631
10587
10416
10197
10048
10052
10193
10385
10535
10602
10595
10532
10428
10311
10239
10266
10386
10508
10527
10411
10247
10169
10248
10439
10625
10709
10671
10545
10381
10235
10165
10221
10394
10593
10692
10616
10409
10196
10097
10144
10292
10462
10589
10635
10581
10451
10311
10248
10310
10463
10616
10682
10634
10504
10349
10224
10176
10233
10381
10546
10625
10560
10388
10223
10169
10254
10422
10582
10660
10620
10469
10265
10109
10101
10266
10511
10678
10653
10454
10209
10056
10055
10181
10370
10561
10701
10729
10609
10375
10149
10066
10180
10413
10611
10652
10520
10296
10092
9987
10015
10158
10360
10532
10585
10490
10310
10169
10171
10330
10568
10785
10922
10979
10983
10964
10955
11005
11153
11372
11544
11523
11246
10805
10393
10173
10171
10280
10366
10359
10277
10175
10094
10055
10082
10189
10356
10512
10572
10498
10329
10163
10087
10132
10268
10431
10547
10563
10465
10298
10147
10095
10174
10338
10500
10577
10535
10404
10256
10172
10202
10330
10480
10558
10516
10379
10232
10158
10196
10331
10515
10676
10740
10658
10450
10217
10091
10149
10355
10579
10691
10640
10471
10273
10134
10113
10234
10471
10728
10878
10826
10594
10315
10151
10182
10359
10551
10637
10581
10436
10293
10227
10264
10377
10511
10612
10642
10587
10465
10325
10236
10262
10418
10637
10802
10819
10682
10486
10354
10352
10455
10586
10674
10688
10631
10524
10409
10344
10387
10547
10765
10936
10977
10878
10702
10548
10495
10572
10746
10935
11044
11008
10846
10651
10540
10573
10714
10865
10930
10870
10717
10538
10402
10358
10422
10571
10741
10847
10824
10664
10430
10225
10145
10223
10410
10602
10698
10651
10494
10317
10214
10234
10356
10511
10614
10608
10495
10334
10213
10198
10299
10462
10595
10628
10540
10377
10224
10159
10218
10369
10535
10631
10611
10485
10310
10158
10092
10150
10321
10536
10682
10667
10491
10260
10126
10171
10349
10528
10594
10527
10391
10267
10206
10214
10283
10389
10489
10522
10457
10323
10201
10166
10231
10351
10458
10512
10502
10441
10351
10271
10246
10297
10400
10501
10545
10516
10429
10318
10226
10204
10289
10465
10643
10703
10587
10353
10143
10071
10148
10290
10399
10431
10395
10319
10230
10166
10177
10292
10469
10604
10598
10441
10220
10063
10044
10154
10318
10453
10502
10447
10319
10182
10114
10164
10321
10514
10647
10650
10514
10298
10105
10034
10126
10333
10537
10626
10562
10400
10243
10171
10201
10303
10422
10509
10522
10446
10305
10161
10083
10108
10217
10357
10468
10511
10467
10345
10193
10092
10115
10263
10452
10554
10494
10303
10098
10005
10077
10274
10493
10629
10618
10469
10258
10093
10057
10164
10351
10518
10580
10508
10339
10154
10040
10052
10180
10348
10457
10451
10348
10228
10171
10211
10329
10477
10600
10642
10568
10388
10179
10053
10087
10261
10464
10569
10524
10369
10203
10114
10136
10251
10406
10534
10577
10517
10381
10239
10159
10180
10292
10451
10585
10618
10511
10298
10092
10022
10142
10378
10582
10638
10543
10385
10259
10201
10192
10213
10266
10349
10422
10426
10334
10194
10100
10116
10232
10372
10455
10441
10342
10204
10088
10058
10147
10333
10526
10614
10536
10327
10107
10004
10074
10274
10489
10601
10550
10367
10151
10017
10032
10185
10406
10603
10716
10729
10674
10615
10624
10749
10981
11240
11416
11431
11284
11051
10825
10670
10594
10568
10544
10475
10328
10106
9870
9717
9727
9907
10180
10422
10536
10494
10343
10177
10091
10136
10289
10457
10536
10477
10327
10188
10145
10207
10316
10403
10436
10412
10338
10231
10129
10095
10176
10346
10511
10568
10486
10321
10163
10074
10068
10135
10263
10420
10538
10541
10410
10229
10133
10208
10407
10586
10617
10487
10289
10144
10113
10178
10289
10405
10499
10546
10519
10420
10297
10229
10270
10404
10552
10628
10590
10458
10294
10161
10108
10159
10307
10495
10624
10605
10427
10191
10054
10117
10347
10598
10724
10682
10538
10398
10321
10311
10347
10420
10521
10613
10636
10564
10444
10375
10429
10594
10778
10877
10846
10709
10535
10401
10369
10465
10653
10837
10908
10817
10617
10435
10382
10479
10659
10825
10912
10903
10807
10650
10481
10376
10406
10576
10799
10930
10866
10618
10316
10119
10118
10290
10523
10693
10723
10607
10402
10200
10099
10153
10339
10551
10658
10587
10381
10165
10064
10118
10268
10418
10497
10488
10409
10296
10196
10165
10237
10391
10544
10604
10533
10379
10232
10161
10181
10266
10384
10499
10560
10516
10356
10147
10011
10045
10240
10483
10626
10584
10381
10131
9964
9960
10110
10332
10512
10568
10488
10327
10177
10113
10167
10318
10496
10606
10575
10403
10181
10044
10080
10260
10465
10578
10561
10460
10342
10248
10191
10190
10266
10405
10531
10550
10428
10231
10087
10079
10198
10358
10471
10490
10414
10271
10111
10008
10030
10188
10407
10563
10566
10422
10227
10095
10087
10189
10337
10456
10490
10422
10284
10147
10088
10143
10288
10446
10535
10509
10381
10210
10081
10066
10183
10382
10558
10609
10498
10282
10073
9976
10028
10190
10376
10505
10529
10448
10305
10167
10100
10139
10269
10426
10525
10511
10389
10225
10106
10089
10172
10303
10418
10465
10426
10315
10177
10077
10072
10173
10324
10431
10423
10304
10150
10057
10072
10179
10316
10420
10447
10384
10252
10113
10046
10101
10260
10436
10526
10482
10342
10193
10120
10158
10290
10459
10596
10637
10560
10395
10225
10136
10165
10279
10398
10445
10391
10261
10117
10031
10050
10182
10378
10545
10594
10488
10275
10069
9983
10063
10261
10467
10577
10545
10400
10214
10063
10003
10055
10199
10374
10488
10469
10315
10114
9997
10047
10239
10455
10571
10539
10398
10231
10108
10060
10094
10194
10317
10397
10379
10266
10128
10060
10113
10259
10420
10516
10507
10399
10227
10053
9952
9973
10105
10269
10370
10365
10291
10229
10239
10331
10477
10654
10839
10999
11082
11058
10967
10906
10957
11109
11246
11233
11014
10660
10311
10087
10019
10066
10152
10217
10226
10170
10073
9982
9956
10026
10167
10306
10365
10311
10172
10028
9956
10001
10147
10333
10476
10514
10436
10287
10145
10079
10116
10234
10378
10483
10505
10430
10288
10144
10077
10131
10281
10445
10523
10459
10276
10058
9910
9903
10038
10244
10415
10464
10381
10239
10147
10174
10306
10464
10565
10568
10479
10328
10158
10029
10009
10135
10362
10573
10645
10541
10340
10175
10138
10227
10374
10499
10552
10516
10401
10248
10128
10111
10216
10383
10513
10535
10456
10343
10269
10269
10336
10440
10539
10590
10554
10428
10268
10165
10194
10361
10586
10755
10786
10675
10497
10359
10345
10465
10654
10808
10845
10751
10577
10410
10318
10330
10434
10585
10718
10765
10692
10529
10367
10302
10376
10545
10710
10782
10734
10605
10463
10370
10359
10433
10559
10674
10710
10627
10451
10263
10160
10190
10325
10481
10571
10552
10439
10289
10173
10142
10207
10330
10432
10437
10319
10132
9982
9960
10084
10287
10464
10538
10490
10358
10203
10091
10071
10163
10334
10497
10560
10480
10301
10129
10057
10108
10235
10362
10428
10409
10314
10180
10068
10041
10132
10310
10486
10563
10498
10320
10116
9979
9970
10095
10298
10484
10555
10465
10259
10052
9961
10036
10224
10414
10503
10459
10319
10163
10066
10068
10166
10316
10450
10503
10440
10288
10123
10044
10109
10291
10490
10586
10517
10320
10099
9967
9977
10111
10298
10456
10516
10449
10278
10087
9986
10047
10248
10472
10580
10497
10267
10012
9860
9871
10024
10238
10420
10499
10450
10299
10118
9995
9996
10123
10313
10462
10482
10354
10141
9956
9895
9975
10133
10273
10326
10284
10190
10102
10066
10110
10236
10401
10521
10516
10369
10153
9998
9993
10129
10309
10430
10443
10371
10259
10148
10064
10037
10085
10195
10306
10343
10276
10144
10034
10024
10128
10299
10455
10520
10451
10259
10020
9850
9846
10025
10291
10495
10525
10380
10169
10027
10028
10149
10305
10413
10430
10360
10235
10102
10019
10035
10158
10336
10468
10469
10327
10121
9974
9978
10131
10344
10502
10526
10418
10248
10108
10060
10112
10224
10341
10416
10423
10356
10235
10107
10043
10095
10258
10451
10561
10517
10339
10128
9996
10002
10121
10272
10367
10353
10236
10080
9970
9971
10083
10242
10369
10416
10388
10315
10222
10126
10062
10076
10182
10327
10405
10343
10167
9995
9943
10041
10223
10383
10452
10418
10303
10154
10029
10000
10103
10308
10515
10622
10590
10470
10354
10321
10401
10582
10822
11056
11212
11244
11166
11049
10970
10955
10963
10922
10784
10551
10269
9999
9806
9740
9813
9981
10153
10241
10209
10097
9988
9958
10034
10188
10351
10444
10419
10286
10112
9991
9988
10101
10268
10407
10454
10386
10232
10066
9981
10035
10211
10408
10505
10439
10252
10053
9949
9977
10106
10262
10372
10379
10270
10090
9935
9906
10041
10279
10495
10578
10499
10316
10131
10031
10054
10181
10350
10484
10521
10444
10289
10134
10059
10108
10264
10451
10569
10548
10397
10205
10080
10084
10193
10332
10433
10469
10444
10369
10266
10182
10184
10302
10483
10609
10581
10404
10185
10053
10067
10192
10354
10491
10568
10568
10492
10376
10297
10329
10477
10666
10782
10758
10605
10406
10255
10220
10314
10497
10681
10774
10727
10575
10413
10338
10390
10536
10699
10805
10805
10693
10519
10374
10350
10482
10707
10897
10939
10802
10552
10306
10173
10200
10359
10551
10655
10598
10405
10184
10052
10053
10148
10270
10377
10453
10472
10395
10224
10042
9979
10103
10346
10542
10563
10419
10226
10103
10084
10132
10205
10285
10354
10369
10287
10129
9992
9982
10130
10358
10540
10589
10498
10327
10160
10071
10100
10230
10391
10482
10444
10295
10124
10025
10043
10161
10319
10443
10468
10365
10168
9980
9916
10020
10229
10407
10452
10357
10201
10073
10017
10038
10127
10265
10413
10499
10465
10319
10142
10042
10077
10220
10393
10517
10548
10479
10335
10174
10075
10108
10272
10474
10576
10486
10236
9970
9844
9922
10138
10349
10444
10401
10280
10157
10079
10060
10101
10200
10327
10412
10385
10237
10049
9946
10002
10183
10372
10462
10421
10292
10145
10031
9990
10050
10208
10403
10522
10476
10275
10041
9921
9979
10154
10322
10390
10345
10233
10108
10014
9991
10073
10257
10476
10611
10573
10371
10116
9956
9968
10124
10313
10427
10412
10290
10129
10007
9982
10069
10237
10409
10499
10460
10315
10142
10030
10027
10116
10244
10350
10395
10360
10255
10115
10003
9985
10080
10240
10368
10382
10277
10128
10034
10054
10181
10354
10497
10549
10483
10314
10109
9965
9954
10085
10286
10447
10492
10412
10266
10138
10096
10167
10323
10491
10577
10520
10329
10094
9941
9955
10127
10357
10510
10499
10330
10103
9945
9936
10066
10247
10375
10397
10324
10205
10086
10000
9976
10037
10174
10322
10382
10297
10110
9949
9931
10073
10288
10453
10502
10436
10298
10132
9986
9927
10015
10238
10488
10608
10512
10255
10003
9909
10012
10228
10429
10528
10516
10436
10358
10349
10453
10667
10926
11130
11207
11160
11054
10964
10927
10927
10928
10897
10803
10619
10347
10042
9808
9744
9865
10083
10258
10290
10179
10011
9895
9896
10017
10210
10399
10507
10489
10354
10164
10007
9948
9999
10121
10253
10341
10353
10289
10184
10101
10103
10213
10388
10536
10573
10478
10308
10160
10116
10190
10326
10431
10432
10313
10129
9971
9914
9985
10151
10344
10487
10525
10436
10253
10060
9959
10012
10190
10386
10484
10437
10296
10164
10119
10173
10280
10385
10447
10448
10386
10281
10179
10140
10202
10345
10498
10577
10543
10422
10287
10213
10238
10350
10494
10600
10614
10519
10351
10186
10109
10171
10350
10556
10676
10649
10505
10342
10258
10288
10393
10508
10585
10611
10585
10515
10425
10375
10425
10583
10771
10872
10815
10633
10436
10331
10355
10477
10638
10778
10840
10784
10616
10419
10319
10398
10622
10859
10973
10912
10727
10511
10342
10263
10294
10423
10591
10696
10650
10457
10221
10078
10100
10250
10420
10512
10487
10367
10211
10086
10051
10130
10289
10447
10520
10468
10324
10163
10063
10068
10173
10322
10434
10439
10328
10170
10077
10123
10294
10495
10620
10616
10504
10343
10197
10113
10116
10203
10332
10436
10456
10383
10261
10158
10126
10170
10258
10341
10370
10326
10223
10114
10061
10101
10221
10369
10476
10491
10402
10241
10081
10010
10079
10265
10467
10568
10509
10329
10131
10018
10033
10156
10326
10472
10531
10479
10344
10204
10144
10199
10331
10458
10505
10449
10314
10155
10037
10015
10111
10290
10462
10534
10466
10304
10138
10047
10061
10161
10305
10436
10492
10436
10286
10130
10071
10149
10309
10437
10456
10370
10246
10147
10098
10100
10154
10255
10368
10425
10372
10228
10083
10040
10131
10296
10430
10458
10375
10230
10092
10010
10013
10102
10246
10383
10440
10377
10219
10060
10007
10113
10332
10540
10614
10510
10290
10079
9984
10038
10204
10404
10560
10608
10519
10319
10100
9981
10034
10226
10435
10534
10476
10315
10146
10046
10046
10138
10293
10451
10527
10456
10247
10002
9857
9888
10057
10255
10376
10382
10299
10179
10080
10054
10137
10320
10527
10648
10608
10430
10223
10114
10164
10335
10523
10618
10562
10379
10157
10012
10019
10168
10369
10508
10522
10422
10278
10162
10119
10162
10273
10405
10485
10445
10274
10044
9874
9856
9997
10213
10387
10439
10353
10184
10018
9946
10008
10175
10352
10434
10381
10240
10109
10062
10110
10213
10322
10406
10441
10404
10292
10149
10071
10147
10385
10693
10928
11000
10925
10807
10761
10843
11029
11242
11395
11426
11310
11065
10751
10452
10245
10166
10186
10231
10220
10116
9954
9819
9794
9905
10104
10294
10385
10341
10195
10029
9932
9952
10077
10235
10342
10344
10250
10125
10043
10050
10143
10283
10414
10483
10456
10336
10173
10054
10055
10194
10405
10577
10619
10516
10333
10165
10087
10122
10242
10381
10467
10449
10331
10177
10086
10127
10291
10488
10612
10601
10472
10296
10145
10062
10066
10154
10301
10447
10507
10423
10223
10020
9946
10055
10278
10473
10530
10440
10285
10165
10140
10213
10352
10509
10630
10662
10578
10413
10256
10203
10292
10475
10650
10726
10667
10507
10317
10182
10164
10272
10449
10599
10640
10555
10405
10290
10280
10379
10531
10661
10708
10651
10514
10360
10266
10283
10405
10566
10682
10696
10617
10501
10415
10405
10474
10589
10696
10740
10691
10561
10406
10302
10302
10406
10557
10672
10690
10600
10453
10330
10299
10374
10507
10617
10638
10549
10382
10200
10071
10042
10121
10277
10438
10524
10483
10329
10147
10049
10104
10284
10468
10516
10367
10093
9851
9783
9918
10165
10385
10484
10450
10326
10168
10030
9968
10029
10210
10430
10565
10531
10351
10139
10015
10029
10147
10296
10412
10456
10408
10280
10130
10041
10075
10213
10368
10451
10433
10352
10260
10189
10152
10164
10237
10347
10421
10384
10235
10069
10005
10095
10277
10436
10487
10423
10292
10151
10041
9998
10048
10185
10349
10448
10421
10277
10099
9988
10004
10135
10309
10432
10436
10319
10146
10011
9980
10056
10188
10315
10392
10398
10326
10194
10061
10013
10112
10327
10538
10608
10483
10238
10018
9941
10027
10207
10380
10468
10443
10321
10156
10022
9991
10087
10271
10447
10517
10435
10235
10017
9887
9899
10026
10186
10292
10308
10251
10172
10119
10122
10183
10281
10364
10370
10269
10103
9968
9955
10077
10258
10392
10416
10341
10219
10098
10012
9995
10075
10246
10440
10554
10518
10353
10155
10032
10034
10141
10291
10414
10455
10387
10239
10095
10055
10164
10368
10542
10579
10461
10260
10084
10005
10040
10160
10309
10416
10419
10302
10114
9960
9931
10047
10243
10411
10465
10384
10218
10055
9979
10026
10169
10328
10420
10409
10317
10203
10120
10096
10135
10224
10324
10374
10325
10182
10024
9953
10020
10182
10335
10395
10354
10259
10166
10108
10095
10134
10219
10309
10340
10271
10126
9990
9946
10019
10169
10335
10470
10548
10556
10503
10435
10435
10568
10820
11092
11256
11245
11088
10876
10696
10589
10557
10571
10581
10527
10367
10121
9879
9753
9799
9982
10193
10323
10320
10207
10058
9966
9993
10138
10327
10452
10440
10307
10142
10037
10032
10104
10214
10325
10404
10403
10287
10087
9909
9877
10027
10274
10472
10522
10431
10281
10154
10091
10101
10176
10286
10363
10336
10192
10014
9927
10003
10200
10399
10499
10479
10383
10267
10167
10112
10138
10260
10432
10556
10546
10396
10191
10045
10027
10131
10302
10464
10549
10513
10360
10164
10042
10075
10250
10455
10562
10513
10348
10156
10018
9973
10032
10185
10385
10546
10584
10477
10303
10192
10228
10390
10570
10664
10642
10548
10448
10384
10369
10409
10502
10623
10712
10704
10586
10422
10316
10337
10476
10658
10794
10832
10764
10619
10453
10337
10334
10457
10640
10768
10752
10589
10376
10238
10248
10392
10585
10729
10752
10638
10430
10217
10102
10144
10317
10522
10642
10613
10457
10257
10114
10096
10212
10411
10594
10661
10564
10344
10111
9981
10006
10160
10356
10504
10536
10432
10229
10021
9919
9992
10203
10425
10522
10437
10229
10019
9912
9945
10086
10266
10411
10461
10397
10262
10141
10117
10208
10359
10479
10509
10447
10338
10232
10165
10156
10208
10302
10391
10419
10358
10227
10091
10024
10068
10210
10383
10496
10476
10318
10097
9934
9925
10077
10302
10475
10508
10398
10218
10068
10030
10129
10324
10524
10627
10576
10390
10161
10006
9998
10131
10323
10464
10476
10357
10178
10044
10029
10134
10298
10437
10497
10463
10353
10207
10080
10034
10104
10261
10407
10438
10316
10109
9940
9905
10011
10185
10332
10392
10352
10244
10118
10035
10040
10137
10284
10409
10451
10391
10262
10129
10064
10114
10272
10463
10577
10535
10346
10108
9947
9935
10057
10233
10375
10425
10369
10236
10092
10023
10083
10251
10433
10521
10470
10317
10150
10043
10026
10097
10228
10372
10456
10415
10246
10032
9900
9937
10126
10356
10505
10507
10378
10195
10048
10006
10089
10258
10430
10527
10515
10420
10297
10198
10154
10178
10266
10384
10467
10454
10336
10181
10089
10120
10249
10385
10439
10373
10212
10032
9921
9947
10116
10355
10535
10554
10406
10190
10033
10008
10100
10245
10378
10450
10421
10276
10059
9884
9870
10049
10319
10516
10530
10380
10176
10020
9957
9982
10081
10231
10373
10420
10320
10123
9966
9977
10176
10464
10708
10832
10841
10788
10730
10719
10806
11010
11275
11472
11471
11234
10855
10499
10290
10247
10290
10314
10245
10074
9854
9681
9649
9790
10047
10293
10412
10369
10224
10076
10000
10021
10121
10265
10402
10471
10425
10278
10113
10030
10078
10225
10383
10477
10479
10399
10269
10134
10057
10097
10254
10448
10557
10499
10302
10084
9974
10024
10193
10381
10493
10477
10342
10156
10019
10009
10130
10307
10437
10464
10406
10322
10255
10213
10198
10231
10327
10454
10526
10467
10286
10088
9997
10065
10246
10443
10572
10598
10517
10351
10163
10047
10083
10266
10490
10613
10559
10372
10177
10090
10151
10320
10514
10643
10650
10533
10366
10258
10288
10439
10610
10694
10656
10546
10445
10397
10404
10451
10526
10609
10654
10614
10487
10336
10254
10301
10463
10670
10836
10891
10801
10588
10345
10202
10252
10469
10712
10826
10757
10577
10412
10337
10353
10424
10529
10648
10729
10701
10539
10321
10187
10231
10414
10593
10637
10522
10324
10148
10057
10066
10168
10334
10508
10607
10570
10407
10206
10077
10080
10195
10345
10447
10447
10341
10170
10017
9966
10059
10255
10452
10546
10495
10341
10172
10071
10081
10188
10343
10470
10504
10414
10234
10052
9968
10036
10229
10450
10582
10552
10374
10147
9999
10017
10197
10441
10617
10632
10482
10252
10061
10004
10101
10300
10497
10596
10553
10397
10214
10100
10113
10241
10410
10527
10523
10394
10199
10036
9985
10073
10256
10443
10545
10513
10362
10161
10006
9974
10081
10271
10442
10501
10426
10265
10111
10039
10074
10192
10337
10448
10470
10383
10217
10059
10006
10104
10301
10474
10512
10392
10192
10037
10013
10125
10306
10468
10544
10506
10373
10202
10070
10047
10154
10340
10501
10543
10436
10236
10050
9971
10029
10187
10362
10474
10469
10344
10155
9993
9948
10047
10237
10406
10461
10379
10216
10064
9988
10008
10109
10260
10411
10495
10457
10297
10102
10004
10090
10331
10590
10715
10644
10431
10200
10060
10051
10150
10299
10431
10486
10424
10259
10065
9953
9997
10179
10392
10511
10476
10323
10155
10068
10096
10212
10353
10452
10468
10392
10262
10149
10123
10210
10368
10512
10558
10474
10289
10081
9943
9943
10088
10315
10511
10571
10468
10268
10087
10011
10054
10170
10300
10395
10424
10367
10233
10082
10006
10065
10233
10405
10471
10395
10234
10092
10050
10128
10289
10459
10552
10506
10332
10113
9972
9983
10126
10308
10434
10464
10415
10329
10259
10259
10376
10615
10903
11124
11192
11122
11009
10947
10956
10992
10994
10935
10807
10606
10341
10070
9891
9884
10035
10237
10359
10340
10215
10063
9956
9933
10013
10193
10418
10584
10583
10398
10123
9918
9889
10031
10244
10414
10477
10433
10325
10205
10130
10136
10227
10355
10440
10416
10279
10095
9971
9990
10155
10379
10532
10530
10387
10199
10076
10064
10140
10253
10364
10451
10484
10429
10290
10140
10089
10194
10400
10568
10580
10427
10204
10034
9986
10062
10221
10405
10550
10589
10492
10301
10124
10070
10174
10373
10554
10625
10563
10412
10247
10146
10161
10291
10477
10619
10630
10499
10299
10147
10133
10259
10453
10606
10642
10549
10383
10235
10188
10274
10458
10657
10779
10771
10645
10475
10356
10353
10472
10653
10811
10879
10839
10724
10597
10521
10534
10633
10770
10867
10857
10722
10518
10348
10302
10402
10586
10748
10798
10717
10557
10403
10326
10349
10452
10585
10691
10723
10653
10492
10299
10167
10173
10318
10518
10648
10627
10472
10279
10157
10156
10257
10391
10482
10482
10382
10222
10084
10049
10151
10344
10529
10614
10569
10432
10276
10172
10164
10257
10416
10564
10618
10540
10374
10223
10176
10248
10381
10487
10511
10453
10346
10239
10178
10194
10290
10425
10524
10520
10397
10205
10033
9962
10022
10180
10357
10465
10453
10333
10181
10085
10103
10228
10402
10549
10605
10538
10370
10173
10050
10080
10258
10491
10651
10659
10526
10334
10172
10094
10115
10225
10382
10517
10548
10439
10240
10068
10029
10142
10324
10458
10467
10360
10200
10065
10012
10061
10200
10375
10505
10523
10416
10246
10121
10124
10259
10450
10589
10601
10486
10314
10175
10135
10203
10335
10455
10496
10425
10268
10099
10015
10083
10292
10547
10718
10713
10535
10277
10066
9989
10055
10207
10364
10465
10480
10415
10307
10212
10186
10253
10380
10487
10497
10387
10210
10068
10042
10147
10326
10493
10577
10546
10417
10237
10081
10023
10099
10280
10471
10569
10519
10359
10185
10095
10129
10259
10409
10501
10489
10379
10229
10120
10117
10223
10384
10515
10553
10485
10344
10191
10097
10111
10237
10417
10552
10560
10437
10260
10138
10134
10232
10364
10463
10495
10453
10347
10205
10084
10053
10148
10330
10492
10531
10416
10211
10033
9975
10059
10229
10394
10473
10430
10290
10128
10029
10051
10187
10369
10499
10506
10386
10203
10055
10013
10087
10225
10352
10412
10388
10301
10193
10111
10098
10176
10321
10462
10515
10442
10288
10154
10131
10243
10437
10632
10768
10833
10841
10819
10806
10849
10982
11188
11378
11428
11259
10906
10510
10235
10160
10241
10348
10368
10271
10112
9971
9904
9922
10008
10132
10250
10308
10272
10159
10044
10014
10107
10280
10439
10498
10431
10277
10109
10008
10028
10171
10377
10543
10584
10491
10333
10203
10158
10190
10266
10354
10435
10476
10439
10318
10167
10082
10126
10275
10432
10498
10439
10288
10116
9991
9964
10058
10243
10437
10538
10494
10342
10188
10134
10210
10370
10527
10599
10546
10391
10218
10133
10202
10394
10594
10686
10632
10487
10336
10229
10180
10196
10289
10443
10580
10596
10456
10240
10096
10123
10296
10496
10618
10625
10546
10428
10312
10250
10292
10450
10662
10810
10806
10653
10446
10299
10281
10389
10567
10734
10812
10758
10598
10424
10346
10414
10580
10742
10810
10765
10647
10520
10442
10453
10558
10716
10849
10878
10779
10597
10416
10311
10314
10419
10588
10748
10808
10715
10503
10299
10237
10353
10556
10697
10686
10546
10371
10249
10215
10264
10373
10501
10587
10562
10412
10208
10066
10068
10198
10356
10443
10420
10320
10206
10127
10108
10155
10255
10377
10468
10480
10399
10262
10138
10093
10157
10305
10470
10573
10567
10461
10323
10236
10249
10349
10475
10549
10526
10410
10252
10126
10093
10171
10317
10450
10490
10408
10247
10092
10026
10082
10236
10418
10548
10562
10440
10226
10019
9931
10019
10243
10477
10590
10527
10344
10166
10099
10176
10348
10528
10638
10634
10521
10347
10190
10125
10179
10316
10458
10529
10498
10386
10246
10143
10129
10221
10383
10529
10568
10467
10276
10106
10049
10120
10268
10410
10485
10465
10353
10187
10043
10004
10110
10314
10498
10558
10466
10290
10131
10060
10090
10194
10324
10425
10449
10375
10237
10115
10090
10181
10340
10478
10525
10460
10314
10149
10037
10038
10160
10345
10492
10518
10414
10246
10113
10081
10158
10298
10431
10492
10448
10316
10165
10080
10108
10230
10373
10460
10456
10371
10247
10132
10076
10116
10246
10406
10501
10468
10321
10149
10054
10083
10212
10374
10499
10537
10463
10292
10085
9943
9955
10132
10382
10558
10560
10399
10190
10067
10099
10253
10436
10555
10565
10478
10339
10210
10158
10225
10400
10604
10723
10677
10487
10267
10149
10186
10330
10476
10541
10505
10392
10242
10098
10014
10038
10177
10365
10494
10484
10344
10163
10042
10033
10124
10263
10391
10455
10419
10287
10119
10011
10035
10187
10383
10517
10521
10405
10237
10107
10087
10194
10377
10537
10578
10472
10281
10112
10049
10109
10246
10394
10490
10492
10395
10244
10130
10148
10321
10585
10825
10960
10986
10954
10923
10928
10990
11118
11281
11392
11339
11065
10642
10237
10008
9996
10112
10217
10226
10140
10020
9929
9911
9982
10129
10305
10435
10457
10361
10200
10068
10039
10130
10290
10435
10485
10415
10262
10111
10044
10094
10236
10406
10531
10557
10467
10293
10119
10048
10133
10330
10516
10570
10463
10272
10111
10053
10098
10210
10354
10493
10562
10492
10277
10016
9873
9951
10206
10474
10603
10557
10417
10292
10234
10237
10281
10358
10451
10508
10467
10321
10144
10051
10110
10290
10492
10617
10624
10525
10366
10211
10129
10172
10335
10534
10650
10611
10448
10272
10199
10268
10432
10598
10689
10670
10551
10379
10228
10176
10263
10458
10664
10771
10727
10568
10392
10295
10324
10459
10634
10770
10804
10715
10533
10340
10233
10279
10462
10686
10824
10797
10627
10428
10327
10383
10557
10746
10857
10852
10751
10601
10453
10356
10352
10454
10620
10759
10781
10663
10469
10310
10269
10347
10476
10567
10566
10470
10325
10198
10149
10202
10331
10469
10542
10509
10383
10225
10108
10084
10159
10291
10406
10435
10355
10214
10095
10074
10167
10325
10471
10539
10502
10378
10225
10123
10134
10259
10426
10529
10499
10357
10193
10098
10110
10211
10360
10517
10632
10652
10547
10357
10190
10156
10276
10463
10585
10563
10420
10242
10109
10064
10111
10231
10378
10475
10454
10306
10112
9986
10001
10136
10310
10446
10511
10500
10410
10255
10090
10014
10099
10319
10546
10633
10524
10292
10079
9997
10065
10224
10391
10498
10507
10424
10293
10195
10196
10308
10468
10576
10561
10424
10233
10081
10037
10112
10262
10405
10461
10390
10226
10057
9975
10022
10171
10346
10465
10478
10381
10216
10057
9986
10044
10200
10365
10451
10430
10348
10276
10254
10272
10305
10343
10385
10409
10369
10244
10086
10004
10085
10306
10539
10644
10571
10381
10189
10075
10060
10127
10253
10398
10499
10486
10343
10142
10004
10013
10157
10344
10474
10501
10434
10313
10184
10107
10139
10287
10475
10571
10480
10234
9986
9900
10030
10283
10502
10578
10505
10353
10206
10120
10123
10218
10375
10520
10568
10478
10296
10131
10086
10184
10363
10521
10581
10526
10390
10237
10131
10124
10230
10412
10585
10656
10580
10391
10184
10064
10080
10209
10371
10483
10495
10407
10264
10135
10083
10139
10278
10424
10489
10425
10258
10075
9975
10009
10155
10338
10472
10508
10442
10315
10188
10120
10141
10239
10356
10420
10387
10268
10125
10039
10055
10165
10314
10434
10474
10419
10294
10156
10070
10085
10203
10377
10523
10571
10504
10377
10290
10324
10500
10761
11004
11139
11138
11040
10928
10879
10919
11015
11092
11068
10901
10609
10271
9991
9851
9874
10006
10155
10236
10213
10117
10014
9975
10034
10177
10342
10449
10440
10313
10138
10017
10028
10168
10354
10476
10469
10351
10200
10098
10091
10176
10318
10471
10580
10597
10499
10320
10147
10077
10149
10318
10477
10529
10447
10279
10111
10024
10056
10197
10392
10554
10600
10499
10302
10122
10061
10147
10311
10442
10462
10368
10218
10087
10031
10073
10206
10385
10535
10584
10505
10350
10217
10194
10296
10464
10608
10659
10599
10459
10300
10189
10182
10289
10465
10618
10659
10562
10380
10215
10157
10235
10403
10575
10670
10650
10533
10384
10283
10290
10412
10594
10739
10759
10627
10404
10213
10169
10304
10549
10777
10880
10832
10682
10511
10387
10351
10417
10565
10733
10830
10790
10626
10439
10350
10413
10578
10736
10800
10755
10646
10530
10449
10430
10490
10613
10742
10795
10714
10520
10306
10182
10209
10362
10551
10670
10649
10493
10279
10119
10097
10219
10409
10558
10592
10507
10355
10207
10118
10119
10205
10335
10438
10446
10341
10174
10038
10011
10109
10287
10464
10570
10565
10457
10302
10181
10162
10257
10410
10528
10542
10441
10276
10127
10066
10125
10283
10465
10579
10566
10440
10280
10178
10182
10277
10409
10519
10566
10522
10391
10226
10118
10143
10298
10479
10552
10454
10243
10051
9985
10058
10207
10359
10467
10514
10484
10372
10211
10081
10071
10200
10396
10532
10519
10369
10178
10063
10081
10212
10378
10497
10516
10429
10276
10132
10077
10152
10333
10532
10648
10622
10476
10289
10156
10128
10202
10331
10446
10490
10437
10308
10172
10115
10184
10350
10520
10591
10513
10321
10106
9963
9945
10048
10220
10386
10475
10448
10322
10166
10067
10080
10194
10345
10450
10459
10375
10243
10123
10066
10094
10196
10328
10430
10453
10385
10266
10170
10168
10277
10449
10590
10610
10482
10258
10046
9953
10025
10221
10436
10558
10526
10365
10163
10025
10016
10134
10313
10460
10499
10406
10227
10060
9998
10072
10228
10361
10393
10317
10197
10104
10076
10117
10218
10364
10512
10584
10513
10312
10098
10015
10125
10356
10560
10632
10566
10423
10266
10133
10063
10107
10283
10522
10682
10654
10454
10227
10127
10200
10366
10506
10551
10505
10400
10263
10129
10052
10086
10230
10403
10493
10448
10309
10176
10126
10169
10264
10362
10429
10442
10389
10283
10165
10098
10126
10239
10371
10440
10392
10240
10058
9946
9970
10123
10322
10462
10480
10385
10246
10145
10129
10206
10341
10471
10529
10475
10336
10201
10170
10290
10518
10752
10901
10931
10870
10779
10723
10755
10893
11104
11292
11342
11183
10848
10460
10165
10051
10101
10215
10279
10224
10069
9894
9797
9831
9984
10193
10377
10479
10474
10375
10228
10106
10079
10173
10343
10496
10544
10462
10297
10140
10069
10118
10264
10438
10551
10531
10373
10149
9979
9964
10120
10375
10608
10713
10645
10438
10185
10002
9971
10096
10297
10453
10483
10387
10238
10134
10134
10242
10406
10543
10579
10482
10295
10118
10046
10117
10286
10461
10563
10555
10453
10305
10177
10136
10214
10376
10529
10580
10503
10355
10232
10198
10256
10367
10482
10556
10555
10464
10321
10207
10200
10317
10498
10646
10700
10654
10548
10425
10333
10322
10422
10602
10762
10786
10635
10389
10198
10172
10314
10539
10741
10847
10829
10700
10514
10360
10327
10442
10638
10791
10811
10701
10544
10441
10439
10526
10655
10776
10842
10815
10685
10496
10338
10303
10419
10623
10790
10814
10679
10462
10287
10240
10322
10465
10584
10626
10585
10482
10356
10254
10226
10299
10441
10565
10576
10448
10248
10089
10055
10148
10304
10448
10528
10515
10400
10207
10015
9930
10019
10246
10478
10582
10515
10349
10210
10180
10259
10384
10485
10518
10471
10358
10221
10123
10125
10242
10429
10595
10656
10581
10406
10213
10091
10099
10236
10435
10589
10607
10464
10230
10030
9971
10079
10284
10474
10565
10536
10427
10300
10208
10184
10241
10357
10476
10521
10443
10266
10085
10014
10101
10298
10488
10566
10498
10333
10160
10059
10069
10182
10345
10484
10533
10467
10322
10178
10117
10170
10303
10439
10501
10459
10339
10208
10130
10137
10220
10341
10452
10508
10476
10352
10176
10037
10031
10185
10421
10591
10579
10388
10144
10002
10033
10191
10368
10475
10487
10418
10298
10159
10054
10048
10173
10377
10540
10556
10412
10206
10074
10090
10223
10378
10467
10457
10369
10240
10115
10045
10081
10237
10460
10631
10640
10466
10204
10005
9979
10128
10360
10556
10635
10578
10422
10231
10087
10060
10168
10352
10497
10504
10359
10147
9997
9997
10143
10352
10516
10558
10462
10273
10077
9964
9991
10142
10337
10469
10468
10345
10184
10091
10130
10283
10468
10586
10579
10457
10282
10133
10071
10114
10243
10404
10526
10549
10456
10292
10148
10109
10207
10394
10580
10676
10644
10509
10337
10213
10196
10290
10437
10542
10530
10396
10206
10056
10015
10097
10255
10418
10512
10493
10367
10195
10071
10067
10187
10363
10497
10524
10442
10300
10166
10096
10118
10219
10349
10444
10454
10379
10263
10175
10166
10247
10384
10512
10565
10511
10377
10239
10180
10228
10342
10440
10464
10405
10299
10196
10140
10178
10336
10590
10849
11000
10985
10855
10736
10738
10877
11089
11284
11392
11369
11186
10854
10462
10155
10052
10152
10321
10395
10306
10124
9985
9980
10100
10270
10412
10481
10462
10361
10211
10077
10031
10111
10280
10449
10529
10481
10336
10169
10062
10067
10191
10381
10552
10616
10529
10321
10093
9969
10026
10241
10494
10633
10576
10363
10131
10014
10062
10221
10394
10508
10532
10463
10315
10133
10006
10027
10211
10462
10624
10599
10419
10221
10135
10200
10358
10513
10592
10565
10442
10265
10116
10080
10199
10425
10642
10737
10675
10510
10336
10236
10245
10357
10534
10704
10784
10719
10530
10320
10211
10265
10438
10613
10675
10584
10391
10195
10093
10132
10298
10521
10704
10764
10673
10482
10292
10204
10263
10433
10622
10734
10724
10609
10457
10352
10353
10472
10661
10838
10920
10870
10723
10562
10481
10523
10661
10814
10894
10854
10711
10532
10396
10351
10395
10481
10552
10571
10530
10451
10369
10325
10352
10455
10595
10692
10669
10515
10303
10151
10139
10255
10413
10521
10533
10458
10335
10206
10120
10124
10240
10422
10570
10590
10468
10290
10178
10198
10320
10453
10523
10511
10435
10324
10205
10121
10129
10256
10461
10636
10672
10540
10314
10125
10074
10174
10361
10539
10628
10593
10451
10263
10117
10086
10190
10371
10525
10563
10469
10303
10160
10109
10160
10274
10398
10486
10505
10443
10318
10185
10124
10190
10367
10560
10649
10570
10360
10140
10036
10099
10283
10478
10583
10559
10435
10287
10189
10185
10273
10409
10527
10563
10487
10325
10153
10059
10094
10241
10423
10546
10554
10452
10298
10169
10128
10195
10336
10481
10548
10495
10344
10179
10090
10122
10246
10389
10478
10478
10397
10270
10145
10072
10088
10197
10351
10469
10485
10389
10243
10134
10122
10207
10341
10454
10489
10423
10278
10130
10075
10177
10414
10668
10793
10711
10469
10209
10064
10081
10201
10328
10393
10379
10309
10212
10122
10078
10116
10234
10379
10471
10455
10341
10200
10111
10119
10214
10346
10448
10462
10363
10185
10017
9958
10055
10260
10457
10542
10481
10326
10165
10070
10075
10172
10323
10461
10509
10426
10247
10078
10031
10151
10376
10581
10654
10564
10365
10161
10047
10071
10222
10431
10599
10644
10540
10334
10135
10049
10127
10329
10546
10660
10608
10423
10207
10067
10062
10174
10338
10478
10536
10488
10344
10163
10031
10030
10174
10391
10560
10588
10470
10289
10152
10123
10197
10324
10440
10494
10460
10345
10197
10091
10095
10224
10419
10579
10615
10509
10322
10157
10102
10180
10339
10492
10556
10498
10337
10144
10007
9998
10137
10362
10552
10588
10440
10190
9983
9931
10033
10201
10330
10370
10339
10278
10221
10194
10228
10347
10538
10733
10850
10856
10792
10747
10791
10932
11126
11303
11396
11359
11183
10912
10642
10475
10446
10501
10534
10463
10286
10074
9918
9873
9941
10088
10253
10374
10400
10319
10178
10062
10049
10166
10362
10537
10594
10498
10293
10081
9969
10007
10168
10365
10505
10533
10448
10292
10131
10036
10057
10191
10367
10481
10461
10322
10160
10089
10154
10309
10456
10517
10473
10357
10225
10133
10124
10217
10386
10563
10660
10627
10485
10319
10228
10260
10391
10544
10631
10607
10483
10319
10193
10161
10234
10367
10491
10543
10498
10379
10243
10157
10161
10256
10402
10535
10592
10540
10400
10247
10178
10254
10455
10673
10780
10708
10504
10297
10210
10283
10459
10635
10730
10719
10625
10503
10417
10427
10555
10756
10930
10977
10869
10668
10486
10406
10442
10554
10685
10791
10833
10781
10637
10459
10347
10378
10543
10749
10878
10869
10745
10587
10473
10450
10526
10671
10817
10873
10773
10534
10271
10131
10194
10412
10640
10739
10665
10482
10305
10222
10256
10375
10515
10616
10634
10559
10424
10291
10217
10231
10312
10411
10474
10467
10390
10274
10173
10141
10204
10341
10486
10559
10515
10370
10201
10102
10130
10269
10440
10543
10522
10395
10237
10131
10123
10209
10351
10493
10581
10568
10443
10253
10094
10060
10175
10370
10529
10561
10461
10295
10153
10098
10147
10278
10435
10543
10538
10412
10234
10112
10127
10277
10481
10630
10655
10552
10375
10205
10120
10163
10315
10504
10633
10638
10521
10348
10207
10166
10241
10393
10537
10582
10481
10280
10098
10050
10163
10357
10506
10537
10461
10338
10217
10124
10087
10143
10303
10502
10616
10554
10340
10113
10018
10106
10306
10495
10583
10548
10418
10248
10113
10087
10209
10428
10624
10677
10558
10347
10171
10118
10195
10350
10513
10619
10618
10494
10298
10137
10112
10237
10420
10523
10470
10292
10098
9986
9991
10093
10248
10408
10523
10543
10447
10279
10132
10096
10194
10369
10521
10571
10500
10349
10192
10106
10138
10281
10469
10601
10601
10465
10267
10115
10086
10183
10347
10494
10557
10511
10384
10237
10142
10145
10244
10386
10497
10525
10456
10325
10191
10122
10158
10295
10471
10593
10593
10479
10327
10235
10250
10345
10455
10524
10530
10477
10373
10241
10135
10126
10245
10442
10597
10611
10480
10307
10215
10265
10414
10568
10643
10609
10481
10299
10121
10020
10056
10230
10468
10648
10674
10542
10336
10175
10141
10235
10393
10527
10571
10503
10355
10191
10086
10095
10219
10402
10547
10574
10462
10275
10119
10079
10165
10315
10437
10468
10402
10279
10158
10098
10137
10277
10462
10601
10614
10494
10321
10217
10269
10472
10744
10979
11111
11131
11082
11025
11014
11068
11165
11243
11237
11104
10854
10543
10258
10076
10039
10128
10262
10342
10307
10177
10037
9984
10057
10223
10404
10522
10534
10441
10282
10131
10070
10147
10332
10528
10617
10540
10332
10100
9960
9976
10132
10346
10517
10570
10497
10358
10246
10224
10298
10418
10521
10560
10518
10400
10236
10086
10027
10109
10311
10533
10661
10635
10488
10314
10206
10210
10309
10446
10552
10568
10477
10320
10181
10146
10245
10430
10604
10674
10608
10448
10286
10212
10267
10418
10580
10663
10626
10496
10345
10253
10262
10364
10509
10630
10665
10597
10458
10322
10262
10306
10428
10571
10675
10694
10613
10459
10305
10254
10365
10601
10833
10925
10834
10641
10483
10450
10536
10678
10810
10893
10905
10833
10693
10548
10485
10551
10707
10853
10901
10835
10707
10591
10537
10563
10659
10787
10883
10885
10774
10603
10468
10440
10518
10641
10733
10749
10678
10536
10360
10211
10154
10224
10389
10557
10635
10580
10430
10274
10204
10267
10439
10634
10748
10716
10560
10372
10256
10261
10365
10501
10605
10633
10566
10417
10243
10136
10165
10319
10496
10578
10521
10386
10274
10248
10299
10384
10472
10545
10566
10485
10293
10067
9941
10006
10228
10473
10608
10595
10486
10357
10257
10209
10234
10346
10511
10638
10633
10486
10288
10175
10221
10388
10563
10644
10595
10448
10275
10155
10151
10279
10486
10669
10724
10619
10413
10219
10130
10173
10308
10463
10568
10578
10485
10323
10156
10057
10068
10180
10342
10480
10529
10466
10322
10182
10136
10225
10404
10562
10602
10504
10332
10186
10137
10202
10347
10517
10636
10637
10494
10265
10078
10054
10214
10456
10623
10619
10465
10264
10123
10092
10169
10319
10490
10609
10605
10461
10242
10075
10057
10191
10383
10516
10525
10427
10286
10168
10116
10146
10249
10385
10484
10487
10380
10217
10090
10076
10182
10346
10474
10491
10388
10223
10088
10060
10160
10346
10538
10650
10633
10488
10268
10068
9984
10060
10259
10471
10584
10551
10416
10276
10205
10221
10297
10388
10460
10479
10424
10304
10180
10142
10239
10427
10589
10610
10470
10251
10076
10026
10105
10257
10415
10517
10516
10398
10206
10041
10015
10170
10431
10652
10714
10606
10421
10278
10234
10274
10348
10422
10480
10504
10464
10353
10220
10161
10245
10449
10655
10730
10623
10395
10176
10069
10104
10235
10387
10490
10496
10400
10242
10103
10063
10151
10323
10485
10550
10488
10336
10168
10060
10058
10161
10321
10458
10499
10418
10256
10100
10036
10099
10258
10430
10529
10504
10374
10220
10140
10194
10366
10574
10724
10760
10690
10577
10512
10574
10796
11129
11450
11615
11548
11292
10985
10760
10668
10670
10691
10675
10594
10433
10195
9936
9769
9798
10027
10328
10520
10509
10344
10168
10093
10135
10237
10342
10422
10457
10417
10286
10107
9983
10004
10168
10372
10493
10471
10343
10196
10111
10124
10234
10405
10568
10645
10584
10406
10207
10098
10138
10296
10482
10606
10619
10524
10372
10233
10174
10223
10354
10494
10566
10535
10424
10293
10206
10199
10273
10394
10503
10539
10475
10338
10198
10134
10181
10314
10469
10572
10581
10499
10369
10257
10227
10299
10444
10588
10659
10626
10514
10389
10323
10354
10469
10611
10698
10672
10532
10346
10218
10229
10378
10590
10752
10790
10701
10549
10423
10393
10471
10617
10753
10807
10750
10613
10472
10405
10446
10570
10715
10816
10839
10782
10675
10560
10491
10511
10624
10783
10895
10883
10734
10521
10363
10347
10473
10662
10808
10842
10760
10612
10467
10386
10404
10515
10667
10779
10776
10639
10423
10236
10174
10268
10463
10649
10723
10647
10470
10292
10209
10253
10381
10512
10579
10561
10478
10367
10264
10204
10212
10289
10394
10464
10450
10360
10258
10218
10272
10391
10513
10579
10558
10454
10301
10160
10106
10181
10355
10533
10606
10532
10361
10200
10145
10219
10381
10557
10672
10672
10545
10335
10142
10080
10198
10440
10664
10739
10630
10414
10221
10141
10184
10300
10428
10527
10572
10548
10456
10332
10242
10245
10345
10482
10569
10554
10447
10305
10195
10159
10211
10339
10500
10613
10600
10437
10200
10030
10038
10222
10457
10593
10562
10415
10267
10205
10237
10316
10393
10441
10452
10417
10335
10231
10165
10193
10319
10483
10589
10572
10442
10277
10176
10193
10310
10461
10565
10576
10494
10361
10239
10185
10228
10351
10491
10567
10529
10385
10204
10078
10064
10167
10342
10514
10610
10579
10424
10218
10075
10085
10248
10462
10594
10567
10410
10222
10105
10106
10210
10368
10516
10587
10539
10387
10212
10121
10179
10357
10550
10649
10601
10437
10234
10083
10048
10144
10331
10516
10607
10559
10407
10239
10141
10150
10245
10372
10475
10515
10478
10387
10292
10248
10284
10380
10481
10526
10481
10355
10198
10087
10087
10212
10406
10563
10591
10474
10279
10117
10071
10161
10346
10542
10661
10643
10494
10299
10180
10219
10397
10604
10722
10698
10563
10389
10240
10160
10178
10297
10469
10601
10605
10469
10274
10137
10127
10224
10358
10461
10492
10437
10298
10118
9983
9988
10160
10424
10635
10681
10554
10344
10167
10099
10145
10258
10368
10411
10357
10227
10090
10031
10095
10258
10441
10559
10565
10471
10340
10252
10268
10402
10617
10842
11008
11075
11039
10936
10837
10826
10961
11218
11471
11555
11368
10959
10501
10184
10094
10174
10294
10340
10277
10142
10010
9951
10008
10171
10371
10512
10518
10390
10203
10065
10050
10163
10348
10516
10592
10546
10405
10243
10139
10138
10232
10372
10497
10555
10512
10365
10166
10014
10008
10176
10435
10639
10674
10541
10349
10230
10246
10367
10507
10581
10553
10436
10283
10167
10147
10236
10391
10532
10590
10540
10413
10269
10169
10156
10244
10409
10586
10691
10662
10503
10289
10130
10109
10233
10427
10577
10596
10477
10293
10157
10152
10290
10507
10702
10793
10746
10589
10395
10257
10240
10353
10533
10684
10732
10663
10530
10411
10370
10430
10572
10741
10861
10869
10752
10568
10421
10399
10513
10688
10814
10817
10699
10531
10409
10399
10509
10687
10847
10912
10848
10682
10488
10355
10350
10483
10696
10886
10956
10870
10684
10511
10448
10517
10662
10791
10835
10771
10623
10444
10308
10286
10401
10598
10762
10788
10659
10452
10280
10218
10270
10390
10520
10603
10592
10472
10292
10153
10151
10291
10477
10582
10544
10406
10261
10179
10177
10238
10352
10499
10624
10648
10522
10292
10079
10009
10120
10340
10544
10632
10574
10411
10226
10113
10139
10302
10525
10683
10681
10518
10291
10136
10134
10271
10456
10582
10590
10490
10343
10223
10185
10245
10386
10555
10678
10688
10561
10352
10173
10133
10261
10475
10640
10660
10538
10360
10222
10168
10196
10282
10402
10517
10573
10523
10376
10212
10134
10187
10327
10455
10495
10436
10327
10230
10186
10217
10320
10461
10574
10585
10467
10282
10146
10152
10300
10494
10615
10597
10468
10307
10194
10171
10242
10380
10535
10643
10647
10536
10359
10210
10167
10245
10386
10502
10529
10455
10312
10155
10045
10031
10133
10316
10491
10556
10464
10266
10086
10038
10146
10337
10499
10555
10502
10382
10251
10151
10119
10183
10340
10526
10637
10592
10402
10177
10057
10115
10309
10516
10624
10594
10467
10321
10221
10204
10273
10402
10532
10588
10517
10337
10134
10017
10044
10188
10362
10478
10494
10421
10302
10196
10161
10230
10391
10569
10659
10598
10406
10186
10059
10083
10231
10417
10546
10562
10465
10301
10152
10097
10175
10349
10525
10601
10530
10354
10179
10112
10203
10415
10645
10777
10742
10565
10347
10210
10219
10349
10512
10614
10610
10503
10334
10160
10049
10060
10203
10416
10581
10597
10451
10228
10049
9994
10066
10208
10353
10442
10441
10342
10184
10050
10026
10142
10335
10490
10509
10385
10199
10064
10055
10175
10362
10528
10595
10538
10390
10230
10142
10165
10280
10425
10538
10584
10559
10484
10401
10371
10455
10676
10978
11246
11365
11302
11134
10990
10961
11034
11113
11093
10936
10675
10384
10131
9965
9918
9995
10154
10303
10341
10227
10028
9884
9911
10118
10399
10607
10647
10525
10320
10136
10047
10083
10224
10405
10541
10563
10457
10282
10130
10076
10137
10271
10403
10465
10421
10291
10142
10063
10114
10283
10484
10608
10592
10453
10276
10156
10144
10235
10375
10495
10541
10491
10368
10230
10143
10157
10282
10471
10639
10693
10583
10348
10105
9987
10057
10259
10466
10563
10525
10408
10290
10219
10211
10275
10411
10579
10686
10643
10444
10203
10086
10181
10428
10665
10754
10672
10505
10363
10310
10347
10447
10573
10679
10712
10646
10509
10385
10360
10457
10623
10766
10813
10755
10629
10497
10417
10430
10543
10720
10883
10942
10853
10650
10443
10349
10422
10613
10807
10895
10841
10697
10555
10490
10520
10616
10731
10817
10838
10776
10642
10490
10402
10434
10581
10762
10873
10840
10668
10437
10258
10221
10343
10557
10741
10787
10662
10433
10221
10126
10174
10319
10487
10609
10641
10566
10406
10237
10155
10218
10390
10553
10590
10469
10268
10108
10072
10158
10302
10437
10518
10529
10468
10358
10246
10192
10239
10376
10538
10635
10613
10483
10322
10225
10246
10366
10502
10569
10533
10424
10312
10252
10262
10333
10442
10556
10626
10604
10476
10297
10165
10161
10281
10450
10570
10590
10520
10405
10291
10220
10226
10325
10477
10591
10570
10392
10144
9974
9997
10209
10487
10675
10678
10513
10289
10131
10114
10234
10417
10571
10624
10558
10407
10243
10150
10179
10329
10528
10674
10685
10558
10366
10213
10171
10243
10381
10519
10601
10589
10474
10290
10117
10047
10128
10316
10502
10580
10519
10370
10228
10164
10200
10316
10460
10569
10586
10482
10294
10111
10032
10100
10270
10445
10537
10514
10405
10274
10185
10184
10284
10450
10602
10650
10553
10358
10178
10122
10218
10395
10538
10566
10473
10316
10170
10094
10117
10238
10415
10568
10609
10504
10301
10115
10054
10146
10329
10502
10587
10561
10450
10303
10181
10139
10202
10342
10482
10541
10490
10369
10257
10214
10250
10336
10433
10502
10506
10427
10286
10156
10125
10231
10423
10586
10625
10525
10353
10205
10146
10193
10319
10476
10602
10641
10565
10408
10254
10190
10256
10414
10575
10647
10590
10434
10259
10155
10174
10301
10465
10576
10577
10468
10306
10170
10131
10216
10388
10554
10608
10497
10267
10047
9962
10053
10249
10427
10499
10451
10321
10161
10021
9953
10006
10187
10421
10576
10549
10356
10129
10026
10117
10341
10567
10685
10672
10581
10490
10461
10528
10694
10929
11167
11333
11372
11287
11136
10997
10923
10915
10925
10887
10750
10506
10204
9936
9793
9827
10013
10255
10430
10454
10330
10145
10021
10040
10195
10397
10533
10534
10405
10214
10050
9980
10032
10186
10379
10524
10552
10453
10293
10177
10180
10295
10446
10541
10536
10447
10328
10231
10194
10239
10361
10513
10613
10589
10431
10223
10085
10099
10244
10428
10551
10569
10497
10379
10262
10184
10186
10284
10440
10563
10561
10412
10198
10055
10078
10251
10469
10610
10615
10507
10359
10244
10207
10260
10383
10528
10628
10625
10512
10345
10220
10214
10335
10513
10649
10676
10589
10443
10318
10273
10333
10481
10661
10800
10832
10735
10557
10393
10335
10415
10583
10742
10805
10744
10598
10442
10353
10371
10494
10669
10813
10852
10763
10596
10451
10421
10531
10725
10896
10954
10873
10695
10504
10386
10392
10516
10700
10850
10881
10767
10561
10377
10317
10408
10587
10741
10782
10695
10533
10375
10281
10276
10350
10470
10583
10630
10577
10443
10294
10213
10244
10366
10508
10595
10584
10476
10317
10179
10136
10222
10407
10591
10662
10561
10334
10100
9987
10045
10226
10419
10516
10473
10329
10170
10081
10102
10216
10371
10505
10576
10562
10466
10328
10219
10212
10329
10513
10649
10644
10496
10296
10164
10172
10306
10495
10655
10717
10650
10470
10256
10123
10161
10357
10596
10727
10669
10461
10223
10070
10053
10150
10303
10445
10521
10498
10386
10241
10140
10137
10231
10371
10487
10525
10464
10327
10177
10098
10149
10320
10522
10633
10586
10409
10211
10107
10150
10309
10495
10617
10624
10522
10362
10219
10158
10208
10348
10512
10612
10585
10432
10225
10080
10079
10218
10406
10527
10519
10408
10269
10175
10164
10234
10364
10506
10589
10546
10373
10149
10003
10020
10183
10388
10523
10535
10443
10308
10194
10150
10203
10336
10486
10567
10529
10387
10216
10103
10095
10194
10360
10525
10609
10562
10401
10221
10138
10205
10368
10510
10543
10463
10333
10220
10165
10179
10262
10393
10519
10567
10497
10344
10198
10141
10195
10318
10440
10504
10476
10357
10189
10052
10034
10165
10384
10571
10628
10536
10360
10193
10112
10149
10293
10486
10639
10669
10551
10354
10200
10189
10329
10537
10695
10728
10626
10442
10256
10145
10150
10262
10423
10548
10571
10479
10314
10164
10111
10193
10373
10549
10608
10505
10290
10084
9991
10046
10202
10380
10507
10535
10451
10283
10112
10038
10121
10320
10518
10594
10510
10323
10134
10028
10040
10163
10349
10521
10593
10523
10357
10215
10216
10394
10681
10957
11128
11166
11103
11009
10958
10999
11124
11259
11298
11172
10900
10571
10292
10129
10093
10159
10275
10373
10389
10298
10149
10035
10036
10159
10336
10478
10524
10468
10342
10202
10115
10129
10241
10383
10462
10422
10292
10158
10096
10129
10231
10358
10468
10522
10487
10365
10217
10135
10182
10333
10498
10586
10566
10468
10347
10247
10200
10233
10350
10503
10608
10593
10458
10283
10173
10190
10319
10486
10600
10602
10480
10288
10122
10074
10172
10360
10531
10600
10551
10431
10309
10238
10242
10325
10464
10601
10662
10599
10431
10243
10137
10171
10326
10521
10658
10669
10554
10383
10267
10292
10460
10679
10823
10810
10654
10445
10285
10239
10319
10495
10701
10852
10872
10745
10542
10388
10384
10530
10731
10863
10860
10741
10579
10453
10408
10460
10595
10769
10907
10937
10831
10638
10460
10390
10455
10601
10735
10783
10724
10594
10463
10397
10438
10577
10751
10865
10842
10675
10440
10260
10229
10351
10544
10686
10698
10582
10408
10265
10214
10271
10405
10563
10678
10696
10598
10426
10266
10204
10272
10414
10531
10538
10426
10257
10117
10063
10109
10232
10388
10518
10560
10477
10298
10121
10058
10159
10370
10570
10653
10591
10436
10266
10151
10133
10222
10391
10565
10651
10593
10429
10267
10214
10297
10451
10576
10605
10533
10399
10259
10165
10160
10258
10423
10571
10621
10547
10397
10260
10203
10243
10351
10473
10554
10556
10470
10334
10223
10204
10290
10433
10550
10578
10502
10356
10200
10098
10098
10208
10377
10515
10538
10428
10249
10106
10084
10194
10377
10542
10605
10537
10371
10196
10115
10182
10364
10558
10652
10601
10443
10268
10161
10163
10264
10417
10554
10613
10560
10416
10252
10151
10162
10265
10393
10472
10455
10350
10205
10096
10089
10206
10400
10569
10618
10518
10331
10163
10099
10156
10290
10438
10548
10585
10528
10389
10232
10150
10214
10403
10601
10672
10563
10343
10150
10090
10172
10319
10439
10478
10432
10327
10205
10116
10106
10190
10331
10463
10527
10508
10432
10340
10270
10253
10305
10413
10523
10559
10480
10320
10174
10133
10218
10378
10527
10599
10567
10444
10282
10161
10158
10290
10486
10621
10601
10435
10226
10090
10083
10195
10369
10544
10651
10635
10486
10272
10115
10108
10247
10432
10552
10555
10462
10324
10192
10116
10153
10328
10578
10764
10756
10544
10262
10082
10090
10241
10420
10538
10569
10518
10389
10209
10054
10021
10149
10371
10543
10555
10411
10215
10082
10062
10132
10241
10344
10410
10412
10344
10247
10202
10278
10482
10736
10932
10999
10948
10863
10843
10946
11160
11410
11588
11604
11420
11078
10680
10351
10184
10191
10299
10393
10381
10252
10081
9972
9994
10139
10333
10484
10532
10468
10333
10188
10096
10098
10195
10344
10474
10515
10436
10269
10099
10021
10088
10273
10479
10595
10566
10420
10249
10145
10147
10233
10350
10446
10485
10452
10365
10269
10227
10272
10383
10492
10528
10469
10351
10235
10172
10184
10270
10404
10538
10605
10555
10401
10223
10130
10188
10373
10590
10728
10729
10602
10416
10263
10214
10292
10451
10601
10651
10565
10383
10203
10117
10164
10314
10492
10619
10646
10569
10432
10306
10266
10349
10524
10700
10775
10698
10515
10340
10286
10383
10567
10726
10782
10724
10605
10486
10413
10412
10494
10651
10829
10941
10918
10766
10580
10479
10526
10677
10819
10857
10775
10632
10508
10458
10493
10592
10720
10830
10871
10807
10656
10490
10401
10441
10584
10741
10819
10775
10635
10459
10316
10259
10314
10465
10644
10748
10707
10532
10332
10236
10304
10484
10658
10729
10673
10528
10355
10213
10151
10204
10365
10555
10662
10609
10421
10208
10091
10116
10246
10407
10531
10581
10539
10418
10269
10178
10211
10363
10550
10661
10635
10492
10312
10181
10155
10241
10398
10547
10604
10529
10357
10185
10110
10164
10306
10453
10534
10518
10419
10285
10188
10189
10303
10479
10621
10653
10563
10404
10259
10188
10216
10329
10477
10591
10602
10495
10327
10198
10187
10295
10447
10546
10533
10417
10257
10130
10101
10195
10377
10561
10653
10606
10450
10271
10157
10154
10252
10404
10544
10609
10562
10412
10224
10092
10089
10221
10421
10594
10659
10591
10423
10235
10115
10120
10245
10420
10545
10551
10435
10267
10146
10150
10287
10486
10632
10635
10487
10271
10106
10076
10180
10347
10489
10547
10507
10390
10244
10136
10128
10239
10420
10573
10614
10524
10361
10219
10166
10221
10348
10481
10554
10526
10410
10266
10167
10164
10250
10380
10490
10526
10460
10307
10135
10042
10097
10287
10506
10627
10590
10441
10286
10211
10236
10331
10453
10555
10589
10523
10372
10219
10167
10260
10442
10595
10626
10526
10354
10184
10071
10049
10137
10320
10526
10654
10629
10462
10253
10122
10140
10291
10498
10664
10713
10620
10430
10239
10153
10220
10394
10566
10630
10549
10373
10194
10099
10124
10251
10419
10551
10590
10520
10375
10223
10139
10173
10318
10504
10628
10608
10442
10222
10075
10082
10225
10407
10525
10529
10431
10286
10163
10127
10214
10399
10589
10667
10578
10370
10160
10054
10083
10204
10352
10471
10519
10470
10336
10191
10143
10260
10511
10785
10970
11032
11013
10983
10989
11052
11174
11331
11454
11444
11241
10889
10522
10281
10218
10276
10357
10390
10360
10279
10168
10061
10009
10060
10208
10384
10492
10480
10367
10229
10142
10154
10261
10416
10537
10548
10425
10227
10067
10042
10159
10340
10478
10511
10443
10320
10198
10132
10162
10298
10495
10653
10675
10538
10319
10152
10135
10272
10478
10638
10675
10582
10413
10250
10172
10217
10373
10569
10709
10712
10566
10336
10137
10070
10162
10356
10547
10646
10619
10491
10327
10209
10205
10340
10567
10771
10830
10701
10457
10242
10166
10235
10365
10462
10484
10448
10386
10322
10280
10297
10401
10571
10726
10777
10702
10563
10456
10438
10498
10594
10685
10748
10757
10689
10554
10422
10389
10506
10721
10906
10949
10831
10633
10478
10449
10556
10738
10908
10987
10947
10813
10654
10544
10523
10587
10698
10805
10857
10823
10706
10559
10469
10498
10634
10786
10849
10773
10599
10418
10307
10299
10380
10511
10639
10699
10644
10484
10300
10206
10263
10438
10621
10705
10648
10490
10314
10199
10193
10300
10478
10647
10717
10645
10462
10267
10166
10213
10375
10565
10689
10695
10588
10424
10279
10219
10268
10397
10539
10619
10590
10463
10300
10188
10185
10291
10438
10536
10529
10425
10290
10199
10194
10274
10402
10524
10587
10553
10425
10262
10158
10181
10329
10522
10662
10689
10608
10472
10345
10280
10305
10418
10565
10659
10631
10485
10307
10210
10250
10389
10531
10594
10552
10431
10278
10149
10100
10174
10358
10567
10686
10638
10448
10227
10095
10109
10240
10414
10555
10610
10554
10405
10228
10118
10147
10306
10498
10604
10566
10422
10276
10217
10268
10390
10521
10612
10634
10576
10449
10301
10205
10221
10354
10531
10645
10622
10472
10272
10123
10088
10167
10316
10463
10547
10531
10428
10300
10231
10277
10419
10571
10630
10555
10384
10211
10117
10133
10238
10386
10527
10606
10579
10439
10239
10085
10070
10213
10432
10593
10603
10466
10278
10151
10145
10246
10391
10514
10576
10561
10475
10349
10239
10208
10288
10446
10593
10638
10549
10377
10217
10150
10198
10326
10470
10566
10570
10469
10300
10146
10096
10191
10384
10563
10624
10544
10389
10266
10250
10349
10508
10648
10706
10656
10516
10346
10226
10215
10317
10477
10609
10637
10541
10364
10191
10106
10150
10295
10464
10570
10564
10458
10314
10204
10179
10248
10379
10512
10580
10544
10419
10269
10178
10196
10310
10454
10553
10557
10461
10309
10173
10124
10195
10355
10511
10567
10487
10319
10165
10112
10183
10330
10476
10555
10533
10422
10275
10169
10180
10332
10579
10823
10971
10988
10914
10838
10844
10972
11188
11404
11518
11460
11237
10927
10636
10448
10388
10417
10462
10451
10348
10169
9988
9896
9950
10132
10360
10531
10583
10511
10366
10216
10129
10149
10278
10456
10589
10593
10459
10266
10133
10139
10277
10468
10609
10626
10507
10297
10088
9982
10037
10228
10449
10572
10528
10354
10161
10064
10112
10278
10478
10624
10656
10568
10408
10257
10193
10249
10400
10570
10677
10671
10556
10390
10256
10224
10312
10472
10613
10654
10568
10403
10248
10183
10239
10382
10535
10615
10578
10443
10288
10205
10244
10383
10547
10655
10669
10597
10479
10367
10311
10345
10468
10625
10728
10707
10565
10385
10273
10297
10441
10631
10778
10826
10770
10644
10513
10444
10481
10616
10782
10890
10879
10755
10586
10467
10463
10580
10764
10933
11010
10962
10813
10635
10512
10505
10616
10784
10918
10940
10830
10641
10472
10408
10473
10619
10757
10808
10743
10590
10417
10299
10292
10406
10589
10746
10784
10671
10464
10275
10205
10281
10450
10611
10678
10613
10443
10246
10120
10136
10300
10535
10722
10764
10642
10428
10234
10151
10206
10359
10532
10641
10635
10518
10352
10226
10206
10295
10436
10545
10565
10488
10354
10228
10172
10218
10353
10513
10612
10591
10455
10274
10140
10119
10215
10377
10528
10595
10545
10404
10246
10166
10213
10361
10522
10606
10577
10468
10347
10273
10278
10363
10510
10664
10750
10706
10536
10324
10187
10196
10326
10481
10559
10521
10396
10255
10164
10170
10277
10444
10588
10627
10529
10343
10171
10105
10170
10317
10466
10552
10544
10447
10296
10155
10100
10178
10367
10570
10666
10588
10375
10151
10047
10120
10320
10525
10624
10571
10409
10228
10117
10123
10238
10416
10585
10676
10645
10503
10324
10206
10216
10345
10511
10612
10589
10457
10281
10141
10095
10168
10340
10540
10667
10641
10461
10222
10059
10059
10207
10406
10548
10575
10488
10326
10147
10026
10032
10188
10426
10609
10619
10453
10232
10115
10177
10366
10551
10634
10598
10485
10346
10217
10137
10158
10305
10525
10695
10699
10522
10274
10108
10113
10262
10448
10571
10586
10502
10352
10189
10082
10097
10252
10482
10667
10709
10597
10415
10275
10244
10316
10438
10548
10600
10568
10453
10294
10164
10140
10247
10432
10589
10622
10512
10320
10151
10093
10168
10331
10494
10578
10540
10396
10217
10095
10102
10247
10465
10646
10696
10592
10396
10220
10149
10202
10331
10460
10530
10519
10435
10316
10221
10208
10298
10445
10558
10560
10442
10270
10134
10091
10142
10251
10379
10479
10504
10426
10278
10164
10207
10454
10819
11137
11272
11213
11065
10962
10977
11091
11232
11319
11292
11126
10839
10501
10220
10092
10138
10287
10417
10430
10317
10152
10039
10045
10167
10344
10501
10583
10567
10461
10302
10155
10092
10162
10338
10525
10607
10530
10341
10157
10075
10120
10246
10385
10484
10513
10451
10308
10141
10053
10121
10329
10560
10669
10592
10388
10190
10112
10186
10360
10545
10656
10646
10522
10353
10233
10226
10327
10467
10569
10594
10548
10455
10339
10236
10202
10280
10448
10607
10646
10536
10355
10233
10244
10360
10492
10567
10571
10522
10436
10330
10239
10219
10303
10459
10597
10636
10560
10430
10334
10326
10408
10544
10678
10756
10741
10634
10489
10390
10401
10519
10681
10798
10820
10749
10631
10528
10491
10546
10678
10833
10929
10904
10755
10557
10420
10428
10583
10805
10979
11015
10902
10699
10508
10419
10468
10628
10816
10937
10923
10774
10562
10399
10369
10483
10672
10827
10867
10777
10605
10430
10321
10314
10402
10533
10628
10623
10505
10336
10210
10203
10315
10480
10606
10631
10550
10414
10297
10262
10331
10469
10603
10658
10600
10454
10288
10177
10166
10258
10415
10569
10644
10596
10438
10250
10132
10148
10288
10475
10616
10651
10574
10429
10292
10235
10290
10426
10555
10588
10497
10337
10209
10187
10274
10412
10531
10584
10558
10465
10334
10219
10179
10247
10402
10570
10663
10629
10480
10285
10142
10130
10274
10514
10728
10797
10681
10450
10236
10150
10213
10368
10532
10638
10651
10559
10385
10205
10125
10215
10439
10655
10716
10574
10327
10134
10105
10229
10412
10555
10610
10574
10466
10317
10181
10131
10211
10395
10578
10643
10539
10323
10122
10050
10138
10328
10519
10624
10611
10501
10351
10227
10185
10250
10398
10558
10637
10576
10394
10191
10088
10150
10341
10548
10661
10629
10485
10308
10182
10159
10249
10413
10570
10628
10542
10346
10149
10061
10127
10297
10467
10549
10514
10394
10254
10160
10151
10230
10357
10471
10516
10475
10376
10267
10195
10191
10267
10409
10566
10657
10614
10444
10247
10163
10265
10498
10711
10763
10620
10375
10167
10093
10160
10310
10469
10582
10613
10552
10418
10273
10196
10242
10393
10558
10631
10559
10381
10202
10120
10172
10325
10503
10635
10673
10602
10450
10287
10205
10265
10444
10633
10704
10601
10382
10170
10067
10100
10227
10388
10532
10614
10595
10463
10272
10131
10140
10306
10534
10689
10687
10544
10343
10178
10112
10163
10309
10487
10603
10586
10437
10242
10122
10146
10284
10439
10514
10472
10346
10202
10111
10122
10248
10458
10678
10825
10855
10789
10705
10690
10794
10999
11238
11420
11473
11379
11186
10988
10871
10862
10905
10906
10788
10545
10244
9988
9864
9903
10070
10280
10433
10464
10373
10222
10105
10095
10207
10394
10569
10655
10616
10474
10301
10183
10179
10288
10451
10574
10585
10472
10297
10165
10155
10278
10464
10612
10648
10564
10404
10237
10123
10106
10200
10373
10546
10618
10537
10342
10156
10103
10222
10450
10663
10760
10705
10534
10327
10177
10160
10290
10505
10685
10729
10619
10431
10275
10224
10285
10419
10575
10700
10737
10652
10470
10287
10218
10315
10512
10680
10718
10620
10464
10338
10289
10322
10421
10557
10677
10710
10613
10420
10239
10188
10305
10518
10697
10747
10664
10519
10402
10370
10434
10573
10742
10883
10931
10853
10680
10510
10454
10563
10778
10968
11014
10893
10684
10506
10441
10491
10607
10730
10820
10850
10809
10707
10594
10544
10605
10752
10889
10916
10796
10588
10407
10344
10417
10561
10683
10717
10653
10529
10399
10315
10307
10387
10532
10681
10749
10676
10479
10260
10147
10207
10397
10595
10689
10649
10519
10373
10265
10225
10269
10395
10563
10694
10713
10608
10442
10311
10278
10343
10460
10571
10621
10571
10420
10229
10107
10150
10355
10603
10742
10693
10507
10309
10206
10228
10336
10468
10570
10593
10512
10349
10183
10112
10183
10358
10538
10637
10632
10555
10456
10374
10338
10370
10465
10575
10624
10562
10411
10263
10215
10306
10491
10673
10758
10704
10529
10305
10132
10089
10198
10405
10603
10694
10639
10477
10299
10197
10221
10358
10537
10668
10683
10576
10405
10259
10207
10264
10388
10507
10559
10515
10391
10240
10132
10119
10207
10350
10473
10514
10463
10358
10263
10229
10278
10390
10518
10604
10603
10509
10359
10230
10204
10313
10516
10702
10752
10619
10364
10131
10055
10178
10427
10664
10773
10718
10543
10337
10184
10139
10212
10362
10505
10557
10484
10329
10191
10155
10236
10382
10513
10576
10560
10483
10374
10272
10229
10282
10420
10571
10641
10575
10407
10230
10137
10164
10277
10412
10505
10515
10435
10295
10170
10147
10272
10500
10710
10778
10670
10458
10273
10216
10301
10467
10627
10711
10688
10567
10401
10268
10242
10341
10505
10630
10636
10522
10362
10251
10240
10320
10441
10551
10611
10599
10505
10350
10189
10102
10143
10300
10490
10604
10579
10439
10281
10203
10250
10389
10542
10633
10624
10519
10363
10225
10179
10262
10440
10618
10688
10606
10424
10249
10175
10222
10351
10497
10604
10630
10547
10366
10158
10038
10089
10290
10513
10614
10534
10344
10180
10152
10283
10521
10789
11016
11149
11158
11062
10939
10898
11009
11242
11471
11542
11374
11012
10598
10289
10168
10210
10315
10375
10339
10225
10096
10016
10022
10121
10288
10467
10583
10580
10461
10301
10202
10224
10351
10510
10624
10653
10594
10461
10293
10157
10134
10256
10460
10608
10591
10414
10199
10092
10153
10328
10512
10624
10641
10574
10445
10295
10194
10210
10350
10535
10644
10604
10444
10266
10167
10180
10282
10430
10583
10693
10707
10598
10408
10248
10227
10372
10598
10763
10765
10605
10376
10203
10168
10280
10477
10662
10745
10688
10526
10351
10257
10291
10424
10579
10678
10678
10588
10458
10351
10327
10410
10572
10740
10825
10776
10616
10435
10334
10374
10538
10742
10884
10893
10766
10569
10401
10347
10430
10605
10785
10885
10873
10778
10671
10628
10684
10818
10967
11057
11043
10928
10756
10591
10494
10505
10626
10806
10954
10976
10840
10613
10429
10402
10544
10750
10881
10859
10711
10533
10415
10389
10441
10538
10646
10722
10720
10613
10436
10278
10233
10334
10525
10694
10748
10665
10503
10355
10294
10341
10463
10595
10670
10644
10516
10336
10186
10149
10259
10469
10671
10750
10656
10442
10232
10143
10217
10401
10592
10697
10676
10550
10384
10260
10238
10329
10481
10606
10635
10552
10404
10266
10202
10242
10376
10555
10698
10720
10586
10348
10133
10072
10209
10468
10705
10795
10707
10507
10306
10196
10214
10333
10488
10610
10650
10599
10484
10359
10285
10309
10438
10619
10755
10756
10604
10379
10211
10192
10317
10496
10622
10635
10536
10375
10224
10161
10242
10455
10703
10838
10764
10513
10228
10068
10097
10264
10462
10603
10648
10592
10452
10271
10131
10115
10247
10457
10620
10643
10528
10359
10238
10220
10297
10418
10521
10555
10498
10372
10245
10200
10281
10457
10636
10721
10670
10515
10338
10229
10236
10350
10508
10625
10635
10531
10366
10229
10191
10268
10414
10553
10615
10572
10446
10299
10202
10204
10308
10468
10604
10642
10550
10364
10171
10073
10125
10302
10511
10649
10654
10541
10376
10238
10185
10233
10361
10508
10596
10568
10431
10266
10189
10270
10478
10697
10799
10726
10516
10272
10103
10076
10201
10425
10653
10781
10750
10582
10375
10245
10257
10393
10567
10688
10702
10610
10458
10314
10244
10283
10412
10562
10647
10609
10463
10283
10166
10174
10304
10487
10627
10652
10550
10372
10210
10144
10204
10358
10533
10646
10645
10533
10368
10240
10227
10346
10534
10681
10703
10587
10398
10233
10165
10217
10359
10528
10646
10653
10536
10352
10201
10169
10267
10424
10539
10549
10460
10333
10250
10271
10415
10652
10910
11099
11165
11123
11048
11024
11089
11214
11330
11366
11283
11079
10792
10501
10297
10233
10291
10388
10430
10376
10255
10137
10082
10119
10245
10423
10586
10657
10587
10407
10224
10151
10236
10429
10620
10715
10680
10541
10360
10213
10167
10248
10421
10592
10663
10596
10431
10256
10149
10146
10240
10393
10544
10619
10565
10391
10186
10070
10112
10289
10496
10623
10617
10502
10347
10228
10203
10284
10440
10595
10669
10621
10480
10332
10267
10324
10473
10633
10724
10707
10599
10460
10358
10337
10401
10516
10625
10669
10616
10479
10326
10246
10299
10467
10659
10763
10725
10574
10400
10286
10277
10369
10528
10699
10807
10791
10642
10433
10287
10297
10463
10684
10834
10844
10739
10603
10519
10526
10610
10726
10824
10865
10839
10761
10674
10623
10643
10735
10861
10954
10956
10850
10676
10519
10459
10527
10688
10856
10941
10898
10750
10583
10499
10550
10705
10866
10937
10884
10745
10589
10469
10407
10416
10507
10660
10795
10807
10640
10359
10123
10073
10231
10486
10677
10707
10586
10400
10248
10199
10267
10414
10561
10628
10576
10442
10310
10260
10315
10438
10567
10649
10656
10584
10464
10351
10309
10368
10495
10620
10675
10634
10523
10391
10294
10277
10360
10516
10672
10735
10654
10461
10252
10131
10153
10299
10494
10639
10650
10503
10263
10070
10057
10254
10552
10775
10799
10636
10401
10229
10187
10269
10425
10596
10714
10723
10606
10417
10263
10239
10358
10538
10661
10656
10534
10371
10251
10229
10314
10474
10645
10747
10720
10561
10339
10167
10135
10256
10455
10616
10655
10566
10405
10253
10171
10183
10281
10433
10579
10652
10604
10450
10270
10166
10195
10331
10488
10576
10553
10441
10302
10205
10201
10299
10457
10598
10643
10563
10399
10242
10185
10265
10452
10657
10774
10734
10544
10293
10116
10109
10268
10494
10652
10662
10535
10355
10218
10185
10267
10426
10590
10684
10661
10534
10369
10252
10237
10322
10461
10584
10631
10566
10405
10219
10109
10153
10343
10579
10729
10711
10546
10338
10203
10206
10331
10507
10644
10676
10585
10412
10232
10132
10166
10329
10550
10722
10757
10637
10436
10277
10257
10382
10566
10696
10705
10604
10456
10335
10288
10333
10454
10597
10689
10667
10530
10344
10202
10171
10253
10403
10553
10639
10616
10477
10278
10119
10097
10225
10420
10558
10560
10443
10293
10199
10201
10289
10427
10561
10633
10594
10449
10263
10142
10159
10307
10502
10636
10637
10505
10310
10151
10113
10218
10410
10588
10662
10607
10468
10323
10240
10256
10370
10546
10720
10818
10807
10720
10650
10687
10860
11117
11363
11509
11510
11365
11117
10842
10627
10526
10521
10531
10471
10314
10115
9977
9974
10116
10339
10543
10636
10579
10407
10218
10123
10175
10344
10532
10644
10637
10532
10387
10265
10217
10267
10399
10555
10651
10631
10498
10323
10197
10185
10286
10446
10583
10630
10570
10445
10327
10279
10317
10415
10522
10595
10602
10525
10374
10207
10119
10181
10375
10588
10685
10607
10418
10246
10189
10259
10403
10552
10650
10662
10569
10399
10239
10189
10293
10492
10657
10692
10591
10435
10320
10298
10372
10515
10686
10821
10848
10729
10509
10305
10238
10344
10551
10730
10780
10683
10499
10323
10237
10283
10448
10667
10841
10887
10787
10601
10438
10389
10479
10656
10829
10917
10888
10766
10610
10494
10473
10568
10742
10914
10993
10928
10747
10548
10451
10517
10715
10939
11074
11056
10908
10709
10555
10515
10600
10762
10914
10964
10867
10654
10422
10282
10294
10432
10602
10700
10673
10540
10373
10258
10253
10360
10528
10674
10718
10632
10456
10280
10196
10238
10372
10517
10601
10593
10505
10376
10255
10193
10225
10352
10523
10648
10651
10528
10353
10236
10250
10390
10575
10700
10696
10564
10373
10230
10219
10350
10550
10697
10704
10570
10381
10248
10234
10334
10489
10631
10706
10684
10568
10397
10246
10188
10251
10396
10539
10603
10560
10435
10294
10204
10213
10325
10492
10630
10665
10575
10410
10261
10206
10267
10405
10548
10626
10600
10484
10341
10256
10293
10442
10620
10718
10669
10492
10276
10122
10093
10192
10372
10556
10666
10644
10495
10292
10151
10161
10322
10541
10694
10699
10570
10385
10236
10173
10203
10300
10424
10520
10533
10434
10260
10110
10093
10241
10477
10662
10685
10541
10322
10146
10088
10153
10296
10455
10563
10568
10463
10307
10203
10235
10404
10620
10762
10763
10638
10458
10300
10216
10228
10334
10496
10642
10692
10615
10453
10297
10227
10265
10372
10483
10539
10507
10395
10250
10154
10171
10306
10487
10609
10605
10486
10327
10210
10188
10265
10406
10549
10623
10579
10432
10264
10176
10224
10378
10549
10645
10621
10488
10307
10160
10134
10269
10518
10756
10850
10747
10521
10316
10249
10337
10514
10687
10788
10787
10689
10530
10381
10319
10380
10521
10644
10660
10542
10338
10135
10018
10039
10199
10436
10634
10679
10535
10285
10079
10033
10153
10340
10484
10534
10503
10428
10329
10225
10158
10191
10342
10548
10683
10645
10444
10207
10088
10164
10385
10616
10734
10691
10531
10341
10204
10171
10253
10420
10606
10727
10728
10630
10528
10536
10705
10980
11244
11394
11407
11332
11233
11152
11101
11074
11051
10990
10840
10580
10259
9985
9861
9920
10105
10312
10452
10484
10410
10270
10133
10077
10151
10329
10511
10589
10520
10356
10203
10148
10209
10346
10495
10597
10610
10521
10361
10203
10131
10192
10360
10546
10648
10608
10446
10247
10121
10138
10288
10487
10623
10632
10531
10395
10306
10300
10367
10473
10576
10633
10604
10483
10314
10188
10186
10319
10514
10662
10687
10584
10414
10261
10193
10241
10378
10538
10634
10609
10474
10303
10194
10213
10357
10562
10733
10790
10713
10550
10395
10334
10399
10543
10681
10737
10684
10549
10392
10287
10290
10417
10616
10786
10831
10723
10530
10370
10332
10429
10602
10768
10857
10837
10714
10541
10409
10397
10522
10713
10857
10882
10802
10695
10638
10649
10702
10763
10818
10855
10849
10774
10636
10497
10448
10538
10729
10908
10963
10856
10648
10452
10368
10428
10586
10761
10871
10874
10770
10603
10446
10369
10403
10517
10623
10640
10542
10378
10238
10188
10241
10361
10495
10593
10616
10545
10405
10265
10208
10277
10433
10580
10631
10567
10438
10318
10260
10288
10392
10539
10661
10681
10558
10339
10145
10099
10236
10477
10680
10738
10635
10445
10274
10202
10255
10401
10569
10680
10682
10570
10394
10231
10152
10188
10326
10505
10646
10682
10587
10405
10232
10167
10253
10442
10619
10675
10573
10379
10215
10184
10298
10481
10625
10659
10581
10441
10303
10214
10201
10274
10415
10564
10640
10586
10424
10251
10181
10265
10453
10635
10710
10645
10479
10294
10171
10160
10266
10443
10607
10673
10603
10431
10256
10177
10241
10407
10575
10643
10569
10391
10205
10105
10135
10274
10449
10577
10606
10527
10378
10229
10151
10190
10330
10502
10619
10624
10521
10370
10250
10210
10257
10360
10464
10519
10494
10391
10257
10160
10161
10273
10448
10598
10645
10565
10405
10255
10198
10262
10406
10551
10617
10567
10422
10246
10123
10120
10250
10460
10642
10696
10586
10372
10177
10108
10197
10385
10564
10641
10580
10416
10230
10112
10122
10255
10445
10599
10643
10563
10402
10232
10126
10132
10254
10444
10605
10639
10516
10304
10143
10144
10316
10558
10732
10756
10636
10447
10280
10205
10254
10416
10623
10768
10763
10596
10356
10178
10157
10288
10483
10637
10685
10623
10487
10332
10212
10175
10239
10370
10488
10511
10407
10224
10065
10029
10146
10358
10552
10627
10550
10377
10208
10132
10174
10296
10430
10516
10524
10454
10335
10221
10174
10229
10369
10519
10589
10534
10387
10238
10173
10231
10391
10591
10762
10849
10833
10746
10663
10666
10793
11015
11251
11419
11473
11414
11268
11078
10894
10764
10699
10661
10571
10377
10103
9853
9743
9821
10038
10280
10442
10472
10381
10225
10085
10041
10137
10344
10557
10652
10569
10362
10165
10105
10213
10416
10592
10659
10606
10477
10337
10238
10220
10302
10461
10626
10698
10615
10409
10193
10098
10174
10362
10539
10607
10547
10412
10275
10191
10181
10244
10355
10466
10524
10501
10419
10335
10304
10344
10433
10531
10601
10613
10548
10411
10251
10145
10157
10284
10451
10557
10548
10445
10328
10276
10327
10459
10608
10703
10701
10614
10501
10430
10437
10513
10614
10695
10725
10687
10584
10452
10363
10381
10517
10694
10801
10766
10615
10444
10346
10354
10446
10576
10701
10778
10768
10663
10514
10419
10454
10612
10801
10908
10879
10746
10586
10475
10452
10520
10659
10823
10949
10981
10900
10750
10617
10580
10665
10824
10959
10982
10861
10648
10446
10352
10395
10530
10670
10738
10709
10603
10475
10387
10380
10460
10582
10675
10678
10579
10421
10271
10189
10203
10307
10455
10575
10593
10485
10301
10154
10141
10274
10472
10620
10644
10545
10385
10243
10181
10232
10382
10567
10686
10662
10491
10260
10095
10087
10234
10454
10630
10684
10607
10456
10320
10270
10321
10441
10568
10649
10654
10581
10454
10329
10277
10339
10487
10626
10653
10539
10346
10185
10134
10198
10330
10468
10558
10564
10470
10309
10168
10142
10263
10471
10651
10708
10623
10448
10259
10129
10111
10220
10413
10587
10632
10516
10316
10174
10189
10351
10557
10694
10706
10602
10435
10268
10163
10167
10284
10457
10593
10615
10513
10349
10218
10191
10280
10437
10585
10650
10595
10436
10236
10079
10040
10143
10345
10548
10643
10576
10390
10201
10120
10182
10330
10469
10539
10531
10466
10362
10242
10161
10181
10322
10512
10622
10571
10391
10207
10134
10200
10346
10485
10565
10567
10493
10366
10244
10204
10293
10473
10641
10690
10588
10390
10200
10110
10158
10316
10499
10602
10550
10363
10146
10029
10072
10236
10421
10545
10580
10534
10429
10293
10179
10150
10235
10394
10529
10555
10458
10299
10172
10150
10254
10450
10647
10741
10667
10453
10217
10094
10145
10323
10519
10641
10656
10574
10425
10257
10147
10168
10339
10579
10746
10737
10564
10344
10210
10223
10351
10514
10637
10679
10628
10502
10349
10237
10220
10303
10426
10505
10485
10379
10257
10199
10246
10377
10523
10607
10587
10472
10314
10181
10129
10180
10311
10462
10555
10536
10406
10232
10111
10115
10247
10434
10575
10597
10495
10331
10198
10169
10265
10443
10619
10708
10659
10486
10267
10113
10109
10263
10492
10671
10713
10618
10474
10385
10420
10584
10839
11123
11357
11465
11409
11228
11028
10915
10917
10961
10939
10793
10544
10267
10033
9896
9896
10046
10295
10514
10564
10404
10138
9956
9987
10207
10476
10648
10661
10546
10374
10216
10134
10173
10333
10545
10694
10690
10532
10309
10141
10107
10204
10371
10519
10570
10493
10324
10154
10081
10157
10351
10569
10709
10709
10570
10354
10159
10082
10165
10366
10572
10669
10614
10451
10276
10174
10180
10282
10435
10569
10611
10530
10371
10243
10248
10398
10604
10740
10734
10605
10429
10280
10200
10209
10315
10494
10677
10770
10717
10551
10381
10321
10401
10556
10674
10679
10575
10431
10324
10294
10341
10445
10581
10716
10794
10760
10605
10400
10269
10309
10508
10749
10894
10877
10742
10590
10505
10514
10601
10735
10868
10935
10883
10718
10531
10445
10525
10725
10920
10995
10924
10764
10601
10497
10481
10557
10709
10884
10999
10983
10830
10617
10467
10460
10589
10758
10852
10807
10643
10447
10316
10307
10415
10576
10701
10717
10605
10417
10246
10174
10224
10351
10479
10553
10554
10483
10348
10176
10033
10015
10171
10441
10673
10722
10575
10358
10235
10281
10442
10604
10687
10677
10597
10469
10320
10206
10197
10315
10494
10615
10599
10465
10307
10221
10242
10340
10466
10570
10610
10558
10420
10249
10133
10140
10271
10454
10586
10592
10463
10270
10127
10126
10279
10501
10665
10686
10578
10420
10296
10243
10262
10344
10474
10601
10646
10549
10344
10157
10118
10256
10478
10640
10655
10533
10348
10185
10108
10157
10331
10566
10745
10769
10623
10401
10232
10196
10282
10418
10527
10554
10484
10334
10169
10077
10124
10296
10504
10636
10631
10506
10329
10181
10118
10167
10304
10457
10532
10473
10306
10133
10056
10115
10270
10441
10558
10580
10503
10360
10228
10199
10316
10524
10696
10720
10581
10372
10214
10170
10225
10325
10420
10479
10478
10406
10282
10165
10127
10193
10327
10449
10497
10456
10354
10241
10169
10180
10290
10463
10608
10629
10493
10267
10082
10046
10172
10376
10545
10604
10548
10423
10293
10208
10203
10285
10424
10554
10599
10521
10348
10169
10081
10133
10294
10480
10595
10585
10463
10294
10171
10162
10281
10471
10636
10687
10597
10411
10227
10138
10184
10340
10529
10661
10678
10573
10403
10253
10203
10275
10428
10572
10626
10558
10403
10241
10155
10188
10329
10510
10647
10671
10570
10395
10236
10176
10242
10399
10564
10655
10628
10497
10328
10206
10195
10304
10476
10618
10645
10536
10342
10161
10077
10127
10276
10444
10542
10513
10364
10170
10039
10053
10216
10444
10617
10653
10551
10385
10249
10209
10279
10417
10550
10603
10535
10371
10198
10119
10188
10380
10611
10800
10904
10925
10888
10831
10812
10888
11076
11318
11491
11489
11301
11015
10758
10603
10540
10511
10466
10390
10286
10166
10049
9978
10000
10130
10322
10480
10523
10434
10278
10157
10150
10269
10455
10611
10661
10589
10444
10303
10225
10221
10271
10341
10405
10441
10428
10365
10285
10251
10309
10445
10582
10630
10549
10378
10209
10130
10181
10332
10511
10631
10635
10521
10346
10201
10161
10252
10432
10620
10730
10707
10558
10348
10181
10142
10253
10451
10627
10689
10616
10459
10309
10244
10293
10427
10574
10660
10639
10524
10375
10275
10287
10417
10612
10769
10790
10640
10381
10153
10086
10215
10457
10671
10761
10720
10606
10485
10398
10375
10443
10600
10780
10868
10788
10577
10374
10323
10455
10679
10859
10913
10845
10713
10578
10493
10502
10624
10822
11000
11057
10959
10764
10586
10518
10579
10722
10870
10948
10914
10774
10593
10464
10461
10586
10766
10905
10933
10841
10669
10484
10355
10335
10435
10604
10746
10771
10650
10439
10247
10174
10256
10444
10632
10715
10642
10455
10261
10170
10225
10382
10548
10641
10632
10542
10414
10303
10262
10324
10476
10644
10733
10687
10530
10350
10241
10247
10349
10489
10602
10633
10562
10414
10266
10208
10289
10475
10663
10741
10659
10460
10248
10130
10159
10311
10501
10627
10622
10487
10291
10134
10102
10218
10429
10628
10712
10642
10465
10288
10211
10263
10394
10525
10598
10595
10527
10413
10290
10220
10263
10424
10626
10748
10708
10532
10328
10208
10219
10333
10490
10631
10703
10663
10508
10297
10147
10149
