1179
1185
1191
1197
1207
1213
1219
1225
1231
1241
1247
1253
1259
1265
1271
1277
1289
1295
1303
1309
1315
1329
1337
1345
1353
1361
1369
1379
1401
1413
1425
1437
1451
1479
1495
1511
1527
1543
1575
1585
1595
1613
1631
1649
1669
1703
1719
1737
1753
1771
1803
1827
1851
1867
1883
1899
1915
1945
1959
1975
1987
2001
2025
2035
2047
2055
2065
2077
2081
2087
2087
2089
2087
2087
2079
2071
2065
2057
2049
2025
2011
1997
1999
2001
1981
1961
1913
1905
1899
1869
1841
1773
1733
1695
1651
1607
1559
1511
1411
1355
1299
1255
1213
1121
1079
1039
1003
969
909
883
859
845
833
807
783
739
719
699
685
671
645
631
619
609
599
589
581
567
561
555
549
545
537
533
529
525
519
517
513
509
503
499
495
483
475
467
459
451
431
421
409
397
385
371
357
327
311
293
291
287
249
229
209
189
167
123
101
77
55
31
9
-14
-62
-86
-110
-132
-156
-204
-228
-254
-278
-302
-326
-350
-398
-420
-444
-466
-488
-528
-546
-564
-576
-590
-618
-630
-644
-654
-666
-674
-684
-702
-708
-716
-722
-728
-738
-742
-746
-748
-752
-754
-758
-762
-764
-766
-766
-768
-768
-768
-768
-768
-768
-766
-766
-762
-758
-756
-752
-750
-742
-738
-734
-728
-722
-710
-702
-696
-688
-680
-672
-664
-646
-636
-628
-618
-610
-592
-582
-574
-566
-558
-548
-540
-524
-516
-510
-502
-494
-480
-472
-466
-458
-452
-438
-430
-424
-416
-410
-402
-394
-380
-372
-366
-358
-350
-336
-328
-320
-312
-304
-294
-286
-268
-256
-246
-234
-222
-196
-180
-166
-170
-176
-138
-114
-92
-66
-40
-32
-26
51
95
137
181
225
311
351
389
389
387
409
431
447
461
475
485
493
507
515
521
527
539
543
547
549
553
557
561
569
571
575
579
585
591
595
599
601
605
607
611
615
615
615
615
615
613
611
611
607
605
603
601
595
591
589
587
585
581
579
577
575
575
573
571
569
567
565
563
561
555
549
545
539
535
523
517
511
503
495
489
483
465
461
455
455
453
449
457
465
451
435
367
401
433
485
537
521
503
697
825
955
1111
1269
1609
1745
1883
2159
2437
2611
2785
2529
2403
2279
2131
1983
1193
779
365
39
-288
-522
-550
-578
-504
-430
-284
-140
-78
-30
15
135
255
205
239
271
293
315
323
331
377
387
395
409
421
441
449
457
465
471
479
483
487
489
491
491
491
491
489
487
485
483
479
477
473
469
465
463
459
451
447
443
439
435
427
423
417
413
409
405
399
389
385
381
377
373
367
365
361
359
357
357
359
359
361
363
367
369
379
385
391
399
405
421
431
439
449
459
469
479
501
513
523
533
543
565
575
585
595
607
625
633
643
649
657
663
669
679
681
685
685
687
683
679
677
671
665
657
649
629
615
603
589
575
543
541
539
519
499
455
435
413
391
369
349
329
291
273
255
237
219
189
175
159
147
133
121
107
83
73
63
55
45
31
25
19
15
11
7
7
5
7
7
11
13
23
29
33
39
45
57
63
69
77
83
89
93
103
107
111
115
119
125
129
131
135
137
141
145
151
155
159
163
167
175
181
185
189
193
199
203
207
209
211
213
213
213
213
211
209
207
203
201
197
193
189
187
183
177
175
171
169
165
161
159
157
155
153
151
149
147
145
143
141
139
133
131
127
123
119
109
105
99
95
89
85
79
69
67
63
61
57
53
53
53
55
57
65
71
75
83
89
97
105
123
133
141
151
161
179
187
195
203
211
217
223
233
237
239
241
241
241
241
239
237
233
227
223
217
213
209
205
201
193
191
187
185
181
179
179
179
181
183
187
191
201
209
215
225
233
255
267
279
293
305
319
331
359
373
387
401
415
439
451
463
473
483
499
507
513
519
523
527
533
533
535
535
535
533
529
527
523
519
515
505
499
493
487
481
469
463
457
451
445
435
431
427
425
423
423
423
425
429
433
439
443
455
463
471
481
489
499
507
525
539
547
555
567
571
577
581
587
593
595
599
601
603
605
607
611
613
615
615
617
621
621
623
623
625
625
625
625
623
621
619
617
611
607
605
601
599
593
591
589
587
587
587
589
593
595
597
603
609
631
639
649
663
679
677
675
671
703
737
787
839
771
853
937
1061
1187
1353
1519
1911
2113
2317
2597
2879
3355
3477
3601
3551
3501
3031
2673
2315
1853
1391
1065
739
311
247
181
231
279
521
523
525
551
579
617
655
723
749
775
777
781
823
841
859
873
887
913
925
937
949
963
975
987
1011
1023
1037
1049
1063
1089
1103
1117
1131
1145
1159
1175
1205
1221
1237
1253
1269
1299
1315
1331
1345
1361
1391
1405
1419
1433
1449
1463
1477
1505
1519
1535
1549
1563
1593
1607
1623
1637
1653
1669
1685
1717
1733
1749
1765
1783
1815
1831
1849
1865
1881
1913
1929
1947
1963
1979
1995
2011
2045
2061
2079
2085
2091
2125
2143
2161
2187
2213
2229
2245
2275
2289
2305
2317
2329
2349
2355
2363
2365
2369
2371
2373
2369
2361
2353
2341
2331
2355
2331
2309
2311
2315
2241
2195
2149
2129
2109
2037
1965
1805
1721
1639
1553
1469
1307
1231
1155
1065
977
905
833
725
715
705
663
621
555
529
503
481
457
417
393
369
339
309
283
255
203
181
157
127
95
33
9
-16
-42
-68
-92
-118
-164
-184
-206
-224
-244
-278
-294
-310
-324
-340
-368
-382
-398
-412
-428
-444
-460
-494
-512
-532
-552
-572
-614
-636
-660
-682
-706
-728
-752
-798
-820
-842
-862
-884
-924
-938
-954
-968
-982
-1010
-1020
-1032
-1042
-1054
-1062
-1070
-1084
-1090
-1096
-1100
-1106
-1112
-1114
-1118
-1118
-1120
-1120
-1122
-1122
-1120
-1120
-1118
-1118
-1116
-1114
-1114
-1112
-1112
-1110
-1110
-1112
-1112
-1114
-1116
-1118
-1124
-1126
-1130
-1134
-1140
-1148
-1152
-1156
-1160
-1164
-1166
-1170
-1174
-1172
-1172
-1168
-1166
-1154
-1144
-1136
-1124
-1114
-1098
-1084
-1102
-1080
-1060
-1034
-1010
-958
-934
-912
-876
-842
-774
-756
-740
-714
-690
-668
-648
-610
-596
-582
-566
-552
-524
-512
-500
-488
-476
-466
-456
-436
-426
-418
-410
-402
-386
-378
-370
-364
-358
-346
-340
-334
-328
-324
-320
-316
-306
-302
-298
-292
-288
-276
-268
-262
-252
-244
-234
-224
-200
-186
-172
-156
-140
-146
-124
-102
-78
-56
-8
15
39
63
85
101
115
145
157
169
179
187
201
205
209
211
213
215
215
211
209
207
205
203
197
195
193
193
191
191
189
189
191
191
193
193
199
203
205
209
211
217
221
223
227
229
231
233
235
237
237
237
235
229
225
221
217
211
203
195
179
169
159
149
137
115
105
93
83
71
51
43
33
27
21
17
13
9
11
13
17
19
31
45
57
71
83
77
71
121
111
99
143
185
309
295
279
383
487
767
937
1109
1293
1479
1649
1821
2441
2597
2755
2755
2757
2165
2009
1855
1447
1039
693
349
-162
-284
-406
-400
-396
1
9
15
111
207
261
307
353
415
475
585
709
771
835
915
997
1019
981
943
957
973
979
985
981
971
961
947
935
907
913
919
889
861
821
783
755
737
721
705
691
667
659
651
647
645
643
645
649
655
663
671
681
705
719
733
747
763
795
811
827
843
861
877
893
925
939
955
969
985
1013
1025
1039
1051
1065
1089
1101
1115
1125
1137
1149
1161
1183
1193
1205
1215
1227
1249
1259
1269
1279
1289
1297
1307
1323
1331
1339
1343
1349
1357
1357
1359
1357
1357
1349
1343
1337
1327
1317
1303
1291
1311
1291
1271
1245
1221
1191
1157
1125
1089
1055
1019
983
909
871
835
797
761
687
653
619
585
553
493
463
433
407
379
353
325
273
247
221
197
171
119
93
65
37
9
-18
-48
-108
-140
-174
-206
-240
-304
-322
-340
-362
-384
-388
-394
-418
-426
-436
-440
-446
-450
-448
-448
-444
-440
-430
-422
-414
-404
-394
-384
-374
-348
-334
-322
-308
-294
-262
-262
-262
-246
-230
-210
-192
-152
-128
-106
-82
-58
-6
19
45
73
99
151
177
201
225
249
271
293
333
353
371
389
405
437
457
477
493
507
521
535
563
575
589
601
615
637
647
657
665
675
687
691
695
697
699
697
695
685
677
669
657
647
619
603
587
589
591
565
541
491
467
441
425
409
381
371
361
355
347
341
343
343
347
351
359
365
385
395
405
415
425
443
453
463
469
475
475
475
465
489
513
495
475
521
481
441
393
345
303
259
85
7
-70
-74
-80
-166
-202
-240
-270
-300
-310
-322
-336
-350
-366
-376
-386
-396
-398
-400
-398
-396
-386
-376
-368
-354
-340
-352
-364
-322
-298
-274
-246
-218
-160
-124
-90
-58
-26
35
53
69
95
119
143
167
211
231
251
269
287
319
335
351
365
379
393
405
431
443
455
469
481
505
519
543
557
585
599
615
631
647
663
679
713
721
729
755
781
813
829
845
859
875
889
903
929
941
953
963
973
989
997
1005
1011
1017
1025
1029
1033
1035
1037
1037
1039
1041
1039
1039
1037
1035
1031
1027
1025
1021
1017
1013
1009
1003
999
997
995
995
997
997
997
1001
1005
1009
1015
1045
1033
1023
1049
1075
1049
1087
1125
1121
1119
1357
1439
1521
1549
1577
1697
1819
2099
2261
2425
2559
2693
3101
3353
3607
3497
3389
3259
3131
2913
2409
1907
1455
1003
341
195
49
71
93
331
399
467
463
457
471
485
537
559
583
577
573
583
587
593
597
601
601
603
601
599
597
593
589
581
575
571
565
559
547
541
535
529
523
517
511
499
495
491
487
483
481
483
483
487
491
499
505
525
537
549
565
581
571
595
619
645
671
725
751
779
803
829
853
879
925
945
967
985
1005
1039
1055
1071
1085
1101
1115
1131
1161
1177
1193
1209
1227
1263
1283
1303
1325
1349
1373
1397
1447
1473
1499
1525
1553
1603
1619
1637
1651
1667
1689
1695
1703
1707
1713
1711
1711
1697
1687
1677
1693
1709
1661
1659
1657
1617
1577
1527
1477
1455
1377
1301
1211
1123
931
835
741
649
559
395
307
219
167
113
77
39
-40
-20
-2
-4
-6
-24
-26
-30
-28
-28
-22
-16
-6
1
9
19
29
49
61
71
83
93
113
123
133
143
151
159
167
179
185
191
197
201
209
213
217
219
221
223
223
221
219
217
215
211
201
195
187
179
169
147
135
121
109
95
79
63
61
41
19
-2
-26
-76
-86
-96
-124
-154
-188
-222
-298
-340
-382
-424
-468
-554
-594
-634
-670
-708
-740
-772
-782
-804
-828
-834
-840
-860
-866
-872
-872
-874
-870
-864
-858
-848
-838
-822
-808
-830
-808
-786
-760
-734
-692
-654
-616
-578
-542
-506
-472
-444
-420
-396
-388
-382
-356
-346
-338
-334
-330
-326
-328
-330
-334
-340
-348
-356
-378
-390
-404
-418
-432
-462
-478
-494
-508
-524
-538
-552
-576
-584
-594
-600
-606
-610
-608
-608
-602
-596
-574
-558
-544
-558
-574
-550
-526
-472
-440
-408
-372
-336
-270
-240
-210
-198
-188
-164
-140
-96
-76
-56
-38
-22
11
27
43
59
73
101
115
127
139
151
163
175
195
205
215
225
235
251
259
265
271
277
283
287
297
301
303
307
311
317
321
325
329
333
339
345
361
371
379
391
403
429
445
461
459
455
497
521
543
567
593
617
643
689
701
715
729
743
763
769
777
781
785
785
785
777
769
763
751
741
715
699
685
667
651
641
619
597
573
551
511
479
467
453
443
431
417
413
409
409
409
413
417
429
439
449
465
479
465
489
511
539
569
585
615
645
681
719
769
819
949
937
925
1019
1113
1381
1551
1723
1889
2055
2207
2359
3099
3117
3135
3123
3111
3105
2767
2429
2009
1591
907
659
413
295
175
151
127
163
225
285
309
331
339
351
361
381
399
417
433
467
481
495
509
523
551
565
579
593
609
623
639
669
685
701
717
735
747
765
783
801
821
871
887
903
917
933
947
963
989
999
1011
1019
1029
1041
1045
1049
1051
1053
1051
1051
1043
1037
1031
1021
1013
993
981
969
955
941
913
897
883
869
855
841
829
805
795
787
781
775
771
769
769
773
777
785
793
821
809
797
819
843
849
885
923
963
1005
1095
1141
1189
1235
1281
1325
1371
1455
1491
1527
1521
1517
1513
1523
1533
1537
1541
1537
1533
1511
1531
1553
1531
1511
1521
1483
1447
1403
1361
1261
1223
1185
1123
1061
993
927
781
705
629
553
479
333
267
201
173
145
103
61
-2
19
41
43
45
35
33
31
33
35
41
45
53
59
63
69
75
85
91
95
99
103
107
109
109
109
109
107
105
99
95
91
85
79
67
59
51
43
35
25
15
-6
-18
-32
-46
-60
-90
-106
-122
-124
-128
-170
-192
-214
-238
-262
-278
-294
-320
-332
-344
-352
-360
-370
-370
-372
-368
-366
-358
-352
-332
-318
-304
-312
-322
-278
-252
-228
-200
-174
-122
-90
-60
-28
1
31
61
123
153
181
203
225
275
299
323
347
369
389
409
447
461
475
491
505
543
555
567
579
601
611
623
635
647
659
671
697
711
725
741
757
755
773
791
811
831
851
873
921
943
967
991
1015
1045
1059
1073
1083
1093
1097
1103
1111
1107
1105
1097
1089
1135
1115
1097
1071
1045
1041
997
955
907
859
813
767
655
597
541
487
433
359
313
267
225
181
141
101
29
-2
-34
-36
-40
-84
-94
-104
-116
-128
-146
-152
-158
-162
-166
-166
-168
-166
-162
-160
-154
-148
-134
-124
-116
-104
-94
-82
-72
-48
-36
-24
-12
-2
19
29
37
45
51
59
61
63
63
63
59
55
43
35
25
13
1
-24
-38
-54
-70
-86
-102
-118
-152
-168
-184
-200
-216
-246
-258
-272
-284
-298
-320
-330
-340
-348
-358
-364
-372
-382
-386
-390
-392
-394
-392
-390
-388
-382
-376
-368
-362
-340
-324
-310
-294
-278
-292
-262
-234
-226
-218
-180
-142
-50
-40
-32
79
189
377
399
419
549
681
849
1149
1449
1635
1823
2157
2493
3061
2989
2917
2833
2749
2605
2125
1645
1203
761
359
-44
-218
-204
-190
-70
49
181
205
227
261
295
365
387
409
401
391
409
425
469
485
499
511
523
545
557
571
583
597
609
623
645
655
667
677
689
705
713
721
725
731
739
739
739
737
735
731
727
713
703
693
681
671
645
629
615
599
585
569
553
525
513
499
487
473
453
445
437
431
425
419
419
419
423
425
431
435
451
461
471
483
495
525
539
553
569
587
593
601
643
665
689
705
721
751
765
779
791
803
813
825
841
847
853
857
861
865
863
863
859
855
841
833
827
815
805
789
775
789
767
747
723
699
691
653
617
575
535
493
449
361
319
275
237
197
191
167
143
139
133
109
101
91
87
81
77
73
67
65
63
61
59
57
55
51
47
43
37
31
17
7
-2
-12
-24
-48
-60
-74
-86
-100
-128
-140
-152
-162
-174
-184
-194
-210
-216
-222
-226
-230
-234
-234
-236
-234
-234
-232
-230
-226
-222
-220
-216
-212
-204
-200
-196
-190
-186
-176
-170
-164
-158
-152
-144
-138
-124
-116
-108
-98
-90
-74
-66
-58
-50
-44
-38
-32
-22
-18
-14
-12
-10
-10
-10
-12
-14
-16
-18
-22
-28
-32
-36
-40
-44
-52
-54
-58
-60
-62
-66
-66
-68
-68
-68
-66
-66
-62
-60
-58
-56
-54
-48
-44
-40
-36
-34
-30
-26
-20
-14
-10
-6
-2
7
13
19
25
31
45
53
59
67
73
81
89
105
113
121
129
137
153
161
169
177
183
191
197
211
219
225
231
237
249
255
261
267
273
283
289
293
299
303
309
313
323
327
331
335
339
347
351
353
357
361
365
367
375
379
383
389
393
405
413
419
427
435
455
467
477
491
503
517
561
561
563
583
603
645
667
691
713
735
755
777
813
827
843
857
871
893
903
913
919
927
931
935
941
941
941
939
939
931
927
923
917
911
897
889
881
873
867
859
851
835
827
821
815
809
797
791
787
783
779
775
773
769
769
769
769
771
771
775
779
779
781
791
805
821
819
819
807
797
873
823
773
833
895
1127
1283
1439
1543
1649
1913
2177
2497
2845
3193
3229
3265
3103
2843
2583
2401
2221
1587
1207
827
457
85
-94
-274
-406
-324
-244
-82
79
389
397
405
441
475
467
457
507
479
449
449
449
447
443
439
435
431
417
413
407
403
397
391
385
373
369
363
357
351
339
333
327
321
315
309
301
289
283
275
269
263
253
249
243
239
235
233
231
229
231
231
235
237
247
253
259
267
275
293
305
315
327
337
349
361
385
399
411
425
437
463
477
489
503
515
527
539
565
577
591
603
617
643
655
669
683
697
723
735
749
761
775
787
801
823
833
843
849
857
867
869
871
869
869
865
861
843
829
817
831
847
803
779
755
733
711
637
601
565
499
469
437
377
349
321
293
265
217
193
167
145
121
111
101
75
65
55
49
41
33
33
31
33
33
41
47
51
57
63
69
75
89
95
101
105
109
117
121
123
125
127
129
129
129
129
129
129
129
131
133
133
137
139
143
145
153
157
161
167
171
181
187
193
199
203
213
217
221
225
227
231
233
237
239
239
241
241
241
241
241
241
241
241
241
241
241
239
241
241
241
241
241
243
243
243
245
245
247
247
247
247
249
249
247
247
247
245
245
243
243
241
239
237
233
231
229
229
227
223
223
221
221
221
219
221
221
223
223
225
225
229
233
235
239
241
247
251
253
257
261
265
269
277
281
283
287
291
297
299
301
303
305
307
307
307
307
307
305
303
299
297
295
291
287
281
279
275
271
267
265
261
255
253
251
249
245
241
239
235
233
231
229
225
221
219
215
213
209
203
201
199
197
195
193
193
193
193
193
195
197
205
209
213
219
225
241
249
257
267
277
287
297
319
331
341
353
363
385
395
403
413
421
435
441
445
449
453
455
457
457
455
453
451
447
439
435
431
425
419
415
409
397
391
385
381
375
365
361
357
355
351
349
349
349
353
355
357
357
367
377
385
377
367
403
425
445
419
391
431
469
587
665
743
757
773
1033
1193
1355
1509
1663
1941
2279
2619
2651
2683
2671
2659
2311
2123
1935
1407
879
-2
-276
-552
-682
-812
-628
-446
-128
-126
-124
-92
-60
31
59
87
59
31
47
63
89
101
113
123
131
149
161
171
183
195
221
233
245
259
271
285
297
321
333
345
357
367
385
393
401
409
415
419
423
429
431
433
433
433
433
433
431
429
427
425
425
423
425
425
427
427
431
435
439
445
449
463
471
479
489
497
509
519
539
551
565
577
591
619
633
647
661
677
707
721
737
751
767
781
797
827
841
855
867
881
907
919
931
941
951
959
969
983
987
993
995
997
997
995
993
987
981
965
953
943
929
917
901
887
893
871
851
827
803
751
733
717
689
661
629
599
495
459
421
383
303
265
227
191
155
147
137
89
89
87
77
67
55
55
55
57
59
69
79
87
99
109
123
135
165
181
195
211
225
253
267
279
293
305
317
327
345
355
363
371
377
391
397
401
407
411
421
425
427
431
433
437
439
441
443
445
445
445
445
445
445
445
443
443
441
439
439
439
439
439
441
443
443
447
449
457
461
465
471
475
481
485
497
503
507
511
515
523
527
529
529
525
521
517
507
501
495
489
483
467
461
453
447
439
433
425
413
407
401
397
391
381
377
373
371
367
365
361
355
353
351
351
349
349
351
351
353
353
357
359
367
373
377
385
391
405
413
421
431
439
455
463
471
479
485
491
495
501
503
503
503
501
493
487
479
471
463
453
443
421
409
397
387
375
353
343
333
325
315
303
299
293
289
285
285
283
283
285
285
287
289
295
297
299
303
305
307
309
313
315
317
317
317
317
317
317
317
315
311
311
309
307
305
303
301
299
297
295
295
293
291
291
289
289
289
289
287
287
287
285
285
285
283
283
281
281
279
277
277
277
279
279
279
279
271
273
273
283
291
277
299
321
307
293
241
189
317
415
511
635
759
1049
1207
1365
1555
1747
1897
2049
2339
2461
2585
2645
2705
2329
2259
2191
1885
1579
739
419
99
-114
-328
-388
-448
-326
-158
9
25
41
121
167
213
251
287
265
243
241
249
255
259
263
263
259
253
251
247
237
231
225
219
213
209
203
193
189
185
183
179
177
179
179
183
185
191
195
207
215
223
233
243
265
277
289
303
317
347
363
377
393
409
425
439
471
487
501
517
557
569
583
595
607
617
629
647
655
665
673
681
693
699
705
709
715
723
727
731
735
739
743
747
753
757
763
767
771
783
789
795
801
809
815
823
837
845
853
859
865
875
877
881
881
881
879
879
867
857
847
865
883
845
821
797
791
787
705
661
617
569
523
475
427
331
285
239
195
149
67
31
-6
-38
-70
-72
-74
-118
-126
-136
-148
-162
-180
-186
-192
-196
-202
-208
-208
-210
-208
-208
-204
-202
-194
-188
-184
-176
-170
-154
-144
-136
-124
-114
-102
-90
-66
-52
-38
-24
-10
17
33
47
61
75
101
115
127
139
149
159
169
187
193
199
205
211
219
221
223
225
227
227
227
229
229
229
229
229
229
231
231
233
233
237
239
241
245
249
253
257
265
271
275
281
285
297
305
311
319
325
333
341
359
369
377
389
399
421
433
445
457
469
483
495
521
543
555
567
589
599
609
617
625
637
641
647
651
655
657
659
659
659
659
657
655
649
645
643
639
635
629
625
615
609
605
599
593
583
575
569
563
557
541
533
527
519
511
503
493
475
465
455
445
435
415
405
395
385
375
367
357
337
329
321
313
305
289
283
277
271
263
251
245
239
233
227
221
213
197
189
181
173
163
143
133
121
109
97
87
75
51
41
31
21
11
-4
-10
-16
-20
-24
-28
-28
-28
-26
-24
-20
-16
-8
-2
3
9
13
23
27
31
33
35
35
35
31
27
23
17
11
-6
-16
-26
-36
-48
-60
-72
-98
-110
-124
-136
-148
-172
-182
-192
-200
-210
-226
-232
-238
-242
-246
-250
-254
-256
-258
-260
-256
-254
-230
-234
-240
-260
-282
-250
-220
-276
-204
-134
-42
47
287
421
555
711
869
1175
1357
1539
1753
1967
2021
2077
1669
1581
1493
1191
889
177
-118
-416
-602
-790
-844
-898
-796
-692
-588
-582
-576
-572
-550
-530
-504
-478
-432
-416
-402
-384
-366
-348
-332
-298
-280
-262
-244
-226
-184
-162
-140
-116
-94
-70
-46
1
25
49
73
97
145
169
193
217
241
289
315
339
365
389
417
443
473
505
535
567
601
671
705
741
773
807
837
869
927
939
953
977
1001
1045
1065
1085
1101
1119
1133
1147
1177
1191
1205
1217
1229
1253
1265
1277
1287
1297
1319
1329
1339
1349
1359
1367
1377
1395
1403
1411
1419
1427
1439
1445
1451
1455
1459
1461
1465
1467
1465
1465
1463
1461
1453
1447
1441
1433
1425
1407
1395
1383
1369
1355
1339
1325
1329
1309
1291
1269
1249
1205
1181
1157
1133
1109
1083
1057
1005
979
955
929
905
857
833
811
789
769
729
709
691
673
655
637
621
587
569
553
537
521
485
467
449
425
401
385
369
339
327
313
301
287
267
259
251
245
237
229
229
227
227
227
231
233
243
249
255
263
271
287
297
305
313
321
329
337
351
357
363
367
371
375
377
377
375
373
371
367
359
353
345
339
331
315
307
297
287
277
257
247
237
227
217
207
197
177
167
157
149
139
121
113
105
99
93
89
83
75
73
71
71
69
73
77
79
83
87
99
105
111
119
125
131
137
149
153
157
159
161
161
159
157
153
147
141
133
113
101
87
73
57
25
21
17
-4
-26
-70
-90
-112
-132
-154
-174
-194
-232
-248
-264
-280
-296
-324
-338
-352
-364
-378
-390
-402
-424
-434
-444
-452
-462
-478
-486
-494
-500
-506
-516
-520
-524
-526
-530
-532
-536
-538
-538
-540
-540
-540
-542
-542
-542
-542
-544
-544
-546
-548
-550
-552
-554
-556
-562
-564
-566
-568
-572
-574
-576
-580
-580
-582
-582
-582
-580
-576
-572
-566
-562
-548
-538
-528
-516
-504
-490
-476
-444
-446
-448
-426
-406
-360
-336
-312
-286
-262
-236
-212
-164
-138
-114
-90
-68
-24
-2
19
39
59
93
109
123
137
149
161
171
189
197
203
207
211
217
219
221
221
221
221
219
217
217
215
215
213
215
217
217
221
225
235
243
251
259
267
279
291
321
337
351
351
351
399
401
403
443
481
517
553
551
635
719
847
975
951
1339
1727
1929
2133
2869
3067
3265
3335
3405
3293
3181
2641
2285
1929
1569
1209
629
449
267
203
137
163
187
491
505
517
551
585
671
663
655
679
703
689
675
683
683
685
681
677
669
663
657
651
645
631
625
621
617
613
611
611
613
617
621
627
635
655
667
681
695
711
709
707
749
771
793
817
841
891
915
941
965
991
1037
1051
1065
1079
1095
1107
1121
1141
1149
1157
1163
1169
1177
1179
1181
1181
1183
1183
1183
1183
1183
1185
1185
1187
1191
1193
1195
1199
1203
1213
1219
1225
1231
1239
1247
1255
1273
1281
1289
1297
1307
1327
1335
1345
1353
1361
1369
1377
1391
1395
1401
1405
1409
1415
1413
1413
1411
1409
1397
1389
1381
1369
1359
1345
1331
1349
1327
1307
1283
1261
1207
1185
1165
1129
1093
1057
1021
951
917
883
849
817
757
745
733
711
689
669
649
625
611
599
587
577
557
547
539
533
527
513
507
501
497
491
485
479
469
463
457
451
445
435
429
423
417
411
405
399
389
385
379
375
369
359
355
351
347
343
337
333
329
327
323
321
317
311
309
305
303
299
295
293
289
287
285
283
281
277
275
273
271
269
265
263
261
259
255
251
249
245
243
239
237
233
227
227
225
225
223
223
225
227
231
233
237
241
249
255
261
267
273
283
289
293
297
299
305
305
305
305
303
301
297
285
279
273
265
255
237
227
215
205
193
183
171
149
139
127
117
105
87
77
67
59
51
43
35
19
13
7
1
-6
-18
-22
-28
-32
-36
-42
-42
-44
-44
-44
-42
-42
-36
-32
-28
-22
-18
-6
1
7
13
19
25
29
39
41
43
45
45
45
43
39
35
31
19
13
7
1
-6
-12
-18
-28
-32
-36
-38
-40
-40
-36
-34
-28
-22
-14
-6
13
27
39
53
67
99
105
109
129
149
189
209
229
249
267
285
303
337
353
369
391
411
443
459
475
491
505
519
533
561
575
589
601
615
637
647
657
665
673
685
689
693
695
697
697
697
691
687
683
677
673
659
651
645
637
631
623
615
601
595
591
585
581
579
579
579
579
579
583
587
605
619
633
649
665
655
641
629
663
697
793
859
925
927
929
1029
1129
1393
1555
1719
1903
2087
2457
2697
2939
3175
3411
3523
3637
3479
3199
2919
2511
2105
1173
821
469
369
267
227
281
333
355
377
377
375
407
419
431
447
461
481
489
497
507
515
523
543
547
553
557
561
565
567
569
569
571
573
573
573
573
573
573
575
577
577
579
579
581
585
587
589
591
593
593
595
595
595
595
593
591
583
579
575
569
563
547
539
525
517
509
501
485
479
473
469
463
455
455
453
455
457
461
465
479
489
499
511
523
551
547
545
565
587
609
631
677
701
727
751
777
825
849
873
895
919
947
961
975
985
997
1003
1011
1017
1017
1017
1013
1009
989
1007
1025
1005
985
957
931
927
885
845
799
753
653
599
545
485
425
311
281
249
203
155
113
69
-10
-48
-88
-122
-158
-224
-232
-240
-262
-286
-290
-296
-318
-326
-334
-338
-342
-348
-348
-348
-346
-344
-336
-330
-326
-320
-314
-306
-300
-286
-278
-270
-262
-256
-240
-230
-222
-214
-206
-196
-188
-172
-162
-154
-144
-134
-118
-108
-100
-92
-84
-68
-60
-54
-48
-42
-38
-34
-26
-22
-20
-18
-16
-14
-14
-14
-14
-14
-14
-14
-16
-16
-18
-18
-20
-22
-22
-24
-24
-24
-24
-24
-24
-22
-22
-20
-18
-14
-12
-10
-6
-4
1
5
7
11
15
19
23
31
35
39
43
47
55
61
65
69
73
77
79
87
91
95
99
101
107
109
111
113
113
115
117
117
117
115
115
113
111
109
107
105
103
101
101
99
99
99
101
101
107
111
115
121
127
141
151
161
173
183
207
221
233
245
257
271
283
305
315
323
331
337
345
347
347
345
343
339
333
319
309
299
289
277
251
239
225
211
197
171
159
147
137
125
115
105
87
81
73
67
61
53
49
45
43
39
37
33
31
31
29
31
31
33
35
37
41
45
51
55
67
75
83
93
101
119
129
139
149
159
177
187
195
201
207
213
217
221
221
221
219
215
205
199
191
183
173
163
151
129
119
107
95
83
63
55
45
37
27
15
11
5
1
-2
-4
-6
-8
-6
-6
-4
-4
1
5
9
15
21
25
29
45
53
61
75
89
77
99
121
109
95
177
181
183
255
327
413
499
717
851
985
1139
1293
1605
1827
2049
2243
2437
2587
2737
2911
2785
2661
2529
2397
2121
1769
1419
1025
631
-30
-158
-286
-328
-372
-314
-258
43
101
157
231
303
449
425
401
435
469
469
467
507
521
533
541
549
571
579
587
593
601
607
615
623
627
631
633
635
637
635
635
633
633
629
625
621
617
613
609
605
597
591
587
581
577
569
565
563
559
555
553
551
547
545
545
545
545
545
547
549
551
553
561
565
571
577
583
591
601
621
633
645
659
675
707
705
703
723
743
765
789
839
863
889
915
941
993
1017
1041
1061
1083
1109
1123
1137
1149
1161
1171
1181
1195
1199
1203
1205
1207
1205
1201
1199
1191
1185
1175
1167
1147
1133
1119
1125
1133
1095
1071
1047
1019
993
977
937
897
853
811
767
723
637
597
557
553
551
505
485
465
459
451
439
427
409
399
389
381
373
361
355
349
343
337
333
327
317
313
309
305
299
291
289
285
283
279
275
273
271
271
269
269
269
269
271
271
273
273
275
275
275
277
277
277
277
277
277
277
279
279
279
281
283
285
287
293
297
299
305
309
315
319
331
337
343
351
357
369
375
381
387
391
397
401
409
413
415
419
421
425
427
429
433
435
439
441
443
447
449
453
455
461
465
467
471
473
479
481
483
485
487
489
489
491
491
491
493
493
493
493
493
495
495
499
503
507
511
515
521
527
541
549
559
569
579
601
611
623
635
647
657
669
693
703
713
721
731
749
755
763
767
773
777
781
787
787
789
789
789
787
783
781
777
773
761
753
747
739
731
721
713
691
679
669
657
647
623
611
601
589
579
569
561
545
537
527
523
517
517
515
517
517
521
525
529
535
541
547
559
563
569
575
581
591
593
597
599
603
605
607
607
607
607
605
603
597
593
591
587
585
575
571
567
561
557
551
547
535
525
519
513
499
493
485
479
473
467
459
445
439
433
429
423
413
411
407
405
401
397
397
395
395
395
397
397
399
401
401
401
401
403
405
405
405
405
407
407
409
411
413
417
421
427
435
441
447
451
463
473
457
483
507
497
487
581
551
523
607
691
935
1089
1243
1415
1587
1735
1883
2113
2439
2765
2675
2585
2385
2281
2179
1821
1465
1049
635
-12
-230
-448
-518
-590
-510
-380
-252
-246
-242
-178
-136
-96
-58
-20
9
37
47
71
95
117
139
179
197
215
229
243
257
271
295
305
313
321
329
341
345
349
351
351
351
349
347
343
339
335
329
317
311
303
297
289
275
267
259
253
247
241
235
227
225
221
221
219
219
223
225
229
233
243
251
259
269
277
287
297
319
331
343
355
367
393
405
417
429
441
453
463
485
495
503
513
521
535
543
551
559
567
573
581
597
605
613
621
631
647
657
667
675
685
701
709
717
723
729
733
737
739
737
735
731
727
709
697
685
699
713
693
673
627
601
575
549
523
449
415
381
367
351
301
279
255
235
215
205
193
167
155
143
133
121
105
99
91
85
79
75
69
61
59
55
53
51
49
49
49
51
51
53
57
59
63
65
69
73
81
87
91
97
103
113
119
125
131
137
143
147
159
165
169
175
181
193
199
203
209
213
223
227
231
235
239
243
245
247
247
247
245
243
237
231
225
219
211
203
193
173
163
151
139
127
103
91
77
65
53
41
27
5
-4
-16
-26
-36
-54
-60
-68
-74
-82
-92
-94
-98
-100
-102
-102
-104
-100
-96
-92
-86
-82
-68
-58
-50
-38
-28
-14
-2
23
39
55
71
87
119
137
153
169
185
217
233
247
261
273
285
297
319
327
335
343
349
359
363
365
369
371
373
373
373
373
373
373
371
369
369
367
365
363
359
357
353
351
349
347
343
337
335
331
329
327
323
323
321
323
323
325
325
333
339
345
353
359
377
387
397
409
421
447
461
473
487
499
513
525
547
557
569
579
589
609
617
625
631
639
645
651
661
665
669
671
675
679
681
683
683
685
683
683
681
677
675
671
667
659
653
647
641
637
623
617
611
605
599
593
589
579
575
573
571
571
571
573
575
577
581
587
593
605
613
621
629
639
661
671
683
693
705
731
743
755
767
781
797
813
841
845
849
869
891
873
909
945
997
1051
1023
995
1189
1323
1457
1615
1775
2051
2329
2609
2789
2971
2757
2649
2543
2417
2291
1915
1541
685
353
19
-100
-222
-306
-264
-224
-140
-56
-34
-12
9
47
83
113
143
171
191
211
227
243
273
285
297
307
315
323
329
337
339
341
341
339
333
329
323
317
309
301
293
273
263
253
243
233
215
207
197
189
181
175
169
161
159
155
155
153
157
161
163
169
173
187
195
201
209
217
227
235
255
265
275
285
295
317
329
339
351
363
375
387
415
429
443
459
473
505
521
537
541
547
585
605
627
649
673
689
705
733
745
759
769
779
797
803
809
811
815
815
817
813
809
805
797
791
773
761
751
737
725
695
679
663
659
657
637
619
579
557
537
517
497
455
433
411
391
371
351
331
291
273
255
237
217
185
171
155
143
129
103
93
81
71
59
51
41
25
19
11
5
0
-10
-14
-20
-24
-28
-30
-34
-40
-42
-44
-46
-50
-54
-56
-58
-58
-60
-60
-62
-62
-60
-60
-58
-56
-48
-42
-38
-30
-24
-6
3
13
25
37
51
63
91
105
119
133
145
171
183
193
203
211
217
223
231
233
233
231
229
219
213
205
197
189
169
159
149
141
131
123
113
99
93
87
85
81
77
79
79
81
83
87
89
99
105
111
117
121
133
139
145
151
157
167
173
177
181
185
189
193
199
201
203
205
207
211
213
213
213
213
213
213
211
211
209
207
203
199
195
191
187
183
173
167
161
155
149
143
137
121
113
105
97
87
69
59
49
39
27
17
5
-16
-26
-38
-48
-60
-78
-86
-96
-102
-110
-116
-122
-130
-132
-134
-134
-134
-130
-126
-124
-120
-116
-104
-98
-92
-84
-78
-70
-64
-52
-44
-38
-32
-26
-16
-10
-6
-2
0
3
5
9
11
11
11
11
9
7
5
3
1
-6
-10
-16
-20
-26
-32
-38
-52
-58
-66
-72
-80
-96
-102
-110
-116
-122
-128
-134
-146
-150
-154
-158
-162
-168
-168
-170
-170
-172
-170
-168
-166
-162
-160
-154
-150
-138
-132
-128
-120
-112
-88
-78
-70
-54
-38
-36
-36
-58
-24
7
59
111
41
135
227
363
497
837
1029
1223
1411
1601
1911
2221
2601
2655
2709
2593
2477
1925
1551
1179
753
327
-16
-360
-616
-640
-666
-574
-482
-244
-260
-278
-266
-256
-232
-210
-160
-142
-124
-122
-120
-96
-84
-72
-60
-48
-26
-16
-6
5
15
27
39
63
75
87
101
113
137
149
161
173
185
195
205
223
231
239
247
253
265
269
273
279
283
289
293
297
301
303
307
311
321
327
331
339
345
363
373
381
393
405
419
431
459
475
491
493
495
551
571
593
615
659
683
707
733
759
785
813
851
883
915
949
983
1051
1083
1117
1135
1153
1177
1201
1217
1229
1243
1251
1259
1267
1267
1269
1265
1261
1241
1227
1213
1225
1237
1213
1191
1175
1137
1101
1061
1023
941
901
861
823
785
749
713
645
615
585
573
561
517
507
497
483
469
459
447
431
425
417
413
407
401
399
395
395
393
391
391
391
391
391
391
391
391
393
393
393
393
395
397
397
399
399
401
401
403
403
403
403
403
399
397
393
389
385
375
369
361
353
345
337
327
307
299
289
281
273
257
253
247
245
241
241
239
245
251
255
263
271
291
303
315
329
341
369
383
397
411
423
435
447
467
475
483
489
493
499
499
499
499
497
495
491
481
477
471
465
459
447
441
435
431
425
415
411
407
405
401
399
397
397
399
399
403
405
413
421
427
435
443
453
461
481
493
503
515
527
547
557
569
579
589
599
609
625
631
637
643
649
657
659
663
663
665
667
665
665
663
661
657
655
647
641
637
631
625
609
601
593
583
575
565
555
535
525
515
505
493
471
461
451
441
431
413
407
399
393
385
381
375
369
367
365
365
365
369
373
377
383
387
393
399
417
427
435
445
453
473
483
493
503
513
529
535
541
545
551
553
557
557
555
553
547
543
523
515
505
495
483
471
447
435
423
413
401
379
369
359
351
343
329
323
317
313
309
307
303
299
297
295
295
295
297
299
301
305
307
309
311
319
329
339
349
359
345
365
383
359
335
373
411
527
529
529
625
721
973
1125
1277
1445
1613
1895
2161
2427
2617
2809
2719
2631
2449
2343
2239
1881
1523
707
371
35
-214
-464
-586
-708
-712
-522
-334
-334
-334
-274
-228
-184
-138
-94
-22
-30
-38
-16
5
25
45
79
93
107
119
129
153
165
175
185
195
205
215
231
239
247
255
263
277
285
291
297
303
317
323
329
337
343
351
357
369
377
383
391
399
413
421
427
435
443
451
459
473
481
489
497
505
521
529
537
545
555
575
585
595
607
619
631
645
673
687
703
719
735
741
759
779
799
821
841
863
905
927
949
969
989
1021
1035
1051
1063
1075
1085
1095
1109
1113
1119
1119
1121
1119
1115
1111
1103
1097
1077
1063
1051
1037
1023
1027
1031
991
969
947
923
899
845
823
803
771
741
709
677
613
579
547
515
483
417
385
351
319
287
253
231
209
203
197
185
173
155
149
143
141
137
137
139
139
143
147
153
157
167
173
177
183
189
197
201
205
209
211
213
213
213
213
211
209
205
195
189
183
177
169
153
145
135
127
119
111
101
83
77
69
63
57
49
49
47
49
49
57
65
71
81
91
103
115
147
143
139
163
185
231
257
281
305
329
353
377
421
433
445
459
473
493
501
509
515
519
521
521
517
513
509
503
495
475
465
453
441
427
397
383
367
351
335
319
301
269
253
237
221
205
175
163
149
137
125
115
105
87
83
77
75
71
69
71
73
79
85
99
111
121
133
145
159
173
203
219
235
251
267
299
313
327
341
355
367
377
397
405
411
417
421
429
431
433
433
433
429
427
425
423
419
415
411
403
399
393
389
383
373
369
363
357
351
347
341
329
323
317
311
305
293
287
281
277
271
263
261
259
257
255
257
257
261
265
269
275
281
295
303
311
319
327
335
343
359
365
371
375
379
381
381
379
375
371
365
357
337
325
313
299
285
253
237
221
205
187
155
139
123
109
93
79
65
39
29
17
7
-2
-18
-24
-32
-36
-42
-44
-48
-50
-52
-54
-52
-50
-44
-36
-28
-14
0
-12
-26
-40
-4
29
25
21
143
217
291
391
491
743
891
1041
1167
1293
1489
1685
2177
2331
2487
2549
2611
2233
2161
2089
1795
1501
687
335
-18
-278
-540
-656
-772
-732
-554
-376
-380
-386
-340
-302
-266
-268
-272
-246
-220
-218
-208
-198
-188
-180
-164
-156
-148
-140
-132
-116
-106
-96
-84
-74
-62
-50
-24
-8
5
21
35
67
83
97
113
127
141
153
175
185
195
203
209
221
225
227
229
231
233
233
233
233
231
231
229
227
227
227
229
229
235
239
243
249
255
263
271
291
303
315
329
343
375
373
371
391
411
433
455
501
527
551
577
603
645
677
709
741
775
839
861
883
907
933
955
979
1001
1013
1027
1037
1047
1061
1063
1067
1065
1065
1059
1055
1039
1027
1017
1001
985
999
975
951
923
897
869
833
797
757
717
677
637
553
513
473
435
397
327
323
317
295
271
253
233
213
201
189
181
171
151
145
137
131
125
115
111
107
105
101
99
97
93
93
91
91
89
85
85
85
83
81
81
79
77
75
73
71
69
63
61
57
55
51
49
45
37
35
33
31
29
25
25
25
27
27
31
35
37
41
45
51
55
65
71
77
83
89
103
109
115
121
127
133
137
147
151
153
157
159
163
163
163
163
161
155
151
147
143
137
131
123
107
99
89
79
67
45
33
21
11
0
-12
-24
-48
-58
-70
-80
-90
-110
-118
-126
-132
-140
-154
-158
-164
-166
-170
-172
-176
-176
-176
-176
-174
-172
-164
-158
-154
-146
-140
-132
-124
-106
-96
-86
-76
-66
-42
-30
-20
-8
1
21
31
39
47
53
59
63
69
69
69
67
65
55
49
41
33
23
13
1
-22
-34
-48
-60
-72
-96
-106
-118
-126
-136
-142
-150
-162
-164
-168
-170
-172
-172
-170
-168
-166
-164
-156
-152
-148
-142
-138
-132
-126
-114
-108
-102
-94
-88
-72
-64
-58
-50
-42
-34
-26
-12
-6
0
5
11
19
21
23
25
27
25
23
21
19
15
11
5
-4
-10
-16
-22
-30
-42
-48
-54
-58
-64
-68
-74
-80
-82
-86
-86
-88
-86
-84
-82
-78
-74
-62
-52
-44
-32
-22
-8
3
27
43
59
57
55
105
139
171
187
201
189
177
287
363
439
543
647
917
1083
1249
1375
1503
2031
2253
2475
2725
2977
3169
3363
3517
3431
3345
3091
2839
2107
1649
1191
785
381
173
-34
-230
-192
-154
35
223
235
265
293
333
373
409
443
485
467
447
461
473
497
507
515
521
527
535
541
549
555
563
569
575
587
591
597
601
607
617
621
625
627
631
633
635
637
637
637
635
635
631
629
627
623
619
611
607
603
599
595
591
587
581
577
575
571
569
565
563
563
563
563
563
565
569
571
575
579
583
595
601
609
617
627
649
661
673
687
703
719
735
733
753
775
797
821
869
893
919
943
967
981
997
1025
1035
1047
1053
1061
1069
1067
1067
1063
1059
1043
1029
1017
1027
1039
1015
993
939
927
915
881
847
769
727
685
639
595
549
503
407
361
313
269
225
147
113
79
53
25
29
33
-6
-16
-26
-36
-46
-62
-66
-70
-74
-78
-80
-80
-80
-76
-74
-68
-64
-52
-44
-38
-30
-24
-8
0
5
11
17
23
27
33
33
33
31
29
21
15
7
0
-10
-32
-44
-56
-66
-78
-90
-102
-122
-130
-140
-148
-156
-164
-166
-170
-170
-172
-170
-168
-162
-156
-152
-146
-140
-126
-118
-112
-104
-98
-84
-76
-68
-60
-54
-46
-40
-28
-20
-14
-8
-2
7
11
15
19
23
27
31
35
37
39
41
41
41
41
41
41
41
39
39
39
39
37
37
37
37
37
37
37
37
39
39
39
41
41
43
43
45
47
47
49
51
53
55
57
61
63
67
69
75
81
85
91
95
107
113
119
127
133
149
157
163
171
179
187
193
207
213
219
225
231
239
243
245
247
247
247
247
245
243
241
239
235
229
225
221
217
213
207
205
203
201
199
199
197
197
199
199
201
203
209
213
217
221
225
231
235
247
253
259
265
271
287
295
301
309
317
331
339
347
353
359
365
371
381
385
389
391
391
391
391
389
385
381
375
369
353
343
333
323
311
287
275
261
247
231
201
187
171
157
141
127
111
81
67
51
37
23
-4
-16
-28
-40
-52
-62
-72
-90
-96
-102
-106
-112
-120
-120
-120
-114
-110
-104
-100
-74
-82
-92
-110
-130
-54
3
59
43
27
205
333
461
629
797
987
1177
1555
1875
2197
2403
2609
2761
2643
2525
2229
1933
1535
1137
227
-86
-400
-616
-832
-980
-944
-908
-760
-614
-608
-580
-552
-514
-478
-442
-408
-358
-368
-380
-366
-352
-330
-320
-312
-306
-300
-294
-290
-280
-274
-270
-264
-258
-246
-238
-232
-224
-216
-196
-184
-174
-160
-148
-134
-122
-94
-80
-66
-52
-38
-12
0
11
23
33
43
53
71
79
87
95
101
115
121
127
135
141
153
161
169
177
185
195
203
223
235
245
257
269
295
309
323
339
355
357
357
391
411
429
449
469
515
539
563
589
615
633
651
717
751
787
821
857
889
899
911
925
941
961
967
975
975
977
973
971
959
949
939
923
909
927
903
879
851
825
809
795
725
687
651
611
573
495
455
413
375
337
265
261
255
233
209
189
169
157
145
133
125
117
103
99
93
89
85
83
81
77
77
77
77
75
75
75
75
75
73
71
71
69
69
67
65
63
61
59
57
55
53
51
51
49
49
49
49
49
51
53
55
57
59
65
69
73
77
79
87
91
95
99
103
107
111
117
119
121
123
125
129
131
131
131
131
133
133
133
135
135
137
137
141
145
147
151
153
157
161
171
177
181
185
189
199
203
207
211
213
217
219
219
219
219
219
217
213
211
209
207
205
199
199
197
195
193
193
193
193
193
193
195
197
199
201
203
205
207
211
213
213
215
217
219
219
223
225
227
231
233
239
243
245
249
253
259
263
273
279
283
289
295
305
311
315
319
323
331
333
335
337
339
341
341
343
343
343
343
341
341
341
339
339
339
339
339
339
341
341
343
343
345
347
349
351
353
357
361
365
369
373
379
385
401
411
419
431
441
469
485
501
495
487
509
583
601
621
663
705
753
767
781
795
811
823
835
849
851
855
853
851
841
831
821
809
797
769
753
737
721
705
689
673
643
629
615
603
591
571
563
555
547
541
535
523
521
517
515
511
507
505
503
503
501
503
503
501
505
507
507
507
523
513
503
525
545
507
547
589
553
519
617
717
999
1101
1205
1463
1721
2085
2367
2649
2817
2985
3105
3021
2937
2697
2457
2097
1737
889
481
73
-136
-348
-542
-492
-444
-286
-130
-132
-136
-142
-124
-106
-80
-54
-10
-8
-6
3
13
35
45
55
63
71
79
87
103
111
119
129
137
153
163
171
179
187
195
203
219
227
233
239
245
257
261
265
269
271
275
277
281
283
283
285
287
289
291
293
295
297
303
307
309
315
319
325
329
341
349
355
363
371
387
397
405
415
425
437
447
471
485
497
511
525
555
553
551
569
589
635
661
687
695
705
745
785
869
911
953
993
1035
1107
1107
1109
1113
1119
1131
1143
1155
1155
1157
1153
1151
1137
1125
1115
1099
1085
1099
1073
1049
1035
1021
989
957
889
851
815
775
737
655
611
569
529
487
447
407
333
329
325
301
277
239
233
225
215
203
187
179
171
165
159
155
149
141
139
137
135
131
127
125
123
121
119
119
117
113
111
109
107
105
101
99
97
97
95
93
91
89
89
87
87
87
85
85
83
83
81
79
79
77
75
73
71
69
65
63
61
59
57
51
49
47
45
43
43
41
39
39
37
37
37
39
41
43
45
47
53
57
61
65
67
71
75
81
85
87
91
93
97
99
99
99
99
99
97
93
91
87
85
81
73
69
63
59
53
43
37
31
25
19
13
7
-6
-12
-18
-24
-32
-44
-50
-58
-64
-70
-74
-80
-90
-94
-98
-100
-104
-106
-106
-106
-104
-102
-96
-90
-86
-80
-74
-68
-62
-48
-40
-34
-26
-20
-6
1
7
15
21
29
35
47
55
61
69
75
91
101
109
119
127
137
147
167
177
187
197
207
225
233
241
249
255
263
267
269
271
271
271
269
263
261
257
253
249
241
237
233
231
229
229
227
229
233
235
241
245
257
265
273
281
289
305
313
319
325
331
337
341
345
345
345
343
339
329
321
313
305
295
285
275
253
243
231
221
211
193
185
177
171
165
157
155
153
153
151
153
153
159
163
165
169
173
187
191
195
203
211
215
219
241
239
237
263
287
239
283
325
277
227
449
601
753
875
999
1261
1525
1901
2201
2503
2667
2833
2901
2767
2633
2337
2043
1649
1257
391
133
-126
-282
-440
-500
-456
-414
-330
-246
-220
-196
-176
-136
-96
-64
-32
-16
-2
11
25
39
65
75
85
93
101
109
115
127
133
139
145
151
163
171
177
185
193
203
211
231
243
253
267
279
305
319
333
347
361
389
403
415
429
443
455
467
489
501
511
521
529
543
551
559
565
571
575
581
589
591
595
597
601
605
607
609
611
615
619
621
625
629
633
637
641
653
659
667
675
683
703
713
723
733
745
757
769
795
807
819
829
841
861
869
877
881
887
893
891
891
887
883
875
867
843
857
873
851
831
779
765
751
715
679
641
603
523
483
441
399
357
273
231
189
149
107
67
27
-48
-84
-120
-152
-186
-204
-226
-250
-252
-256
-278
-284
-292
-294
-298
-298
-300
-296
-292
-288
-282
-276
-262
-254
-246
-238
-230
-222
-216
-202
-196
-190
-184
-180
-172
-168
-166
-164
-162
-160
-158
-158
-158
-158
-158
-160
-162
-162
-164
-164
-166
-170
-170
-172
-174
-176
-176
-178
-182
-184
-186
-188
-190
-192
-194
-196
-198
-200
-204
-204
-206
-206
-208
-208
-208
-208
-206
-206
-202
-200
-194
-190
-186
-180
-176
-168
-162
-150
-142
-134
-126
-120
-106
-100
-94
-88
-82
-74
-70
-68
-66
-64
-62
-62
-62
-62
-64
-66
-68
-72
-74
-76
-78
-80
-82
-84
-86
-88
-90
-90
-90
-92
-90
-90
-90
-90
-88
-88
-86
-84
-82
-80
-78
-74
-72
-70
-66
-64
-56
-52
-48
-44
-40
-34
-28
-18
-10
-4
1
7
21
29
35
41
47
55
61
73
79
85
91
95
107
113
117
121
125
135
141
145
149
153
157
161
169
173
177
181
183
189
193
195
197
199
203
205
209
213
215
219
221
229
235
241
249
255
273
283
293
305
315
327
339
363
375
387
399
411
431
439
445
451
457
459
461
459
455
451
445
439
419
407
395
383
369
339
325
309
295
279
265
251
225
213
201
193
183
167
163
157
155
153
153
153
161
165
169
179
187
215
229
243
237
231
257
281
269
311
353
411
469
465
551
639
757
877
1155
1321
1487
1625
1765
1985
2207
2699
2593
2489
2381
2273
2019
1623
1227
787
347
85
-176
-460
-446
-432
-326
-220
-32
-8
15
55
93
169
195
221
203
183
195
207
227
235
243
247
251
255
259
263
265
267
269
269
271
273
273
273
273
275
277
279
281
283
289
293
295
299
303
307
311
317
321
325
329
331
335
337
339
339
339
339
337
331
329
325
321
317
307
303
297
293
289
279
277
273
271
269
267
265
267
269
271
275
277
287
295
301
309
317
327
335
357
369
379
391
401
427
441
453
467
479
493
505
543
555
567
579
603
613
623
631
641
655
659
665
667
669
667
665
657
649
641
627
615
645
623
603
577
553
535
519
443
405
367
331
293
221
189
155
125
93
73
51
27
7
-12
-26
-40
-68
-80
-92
-104
-116
-136
-144
-154
-162
-170
-176
-182
-194
-198
-202
-204
-208
-212
-212
-212
-210
-208
-200
-194
-190
-182
-176
-166
-158
-138
-126
-114
-100
-88
-60
-46
-32
-16
-2
11
25
55
69
81
95
107
129
141
151
161
169
183
189
195
201
205
209
213
217
219
221
223
225
227
229
229
231
233
235
237
241
245
249
253
257
267
273
279
287
293
301
309
327
337
345
355
365
387
399
409
421
431
455
467
477
489
501
511
521
539
547
555
561
569
579
583
587
587
589
589
589
583
579
575
569
563
549
541
533
525
517
497
487
475
465
453
443
431
409
399
387
375
363
343
333
323
315
305
297
289
275
271
267
263
259
255
255
255
257
257
261
265
267
271
275
279
281
287
291
293
295
297
299
301
301
301
299
299
297
293
291
287
285
283
277
275
273
271
267
265
263
261
261
259
259
259
261
263
263
265
267
271
275
277
281
285
289
293
303
307
311
317
321
331
335
339
343
345
349
351
355
357
357
357
357
355
353
351
349
347
341
337
333
329
325
321
317
309
305
301
297
293
285
281
277
275
271
269
267
267
267
267
267
267
275
283
289
297
303
331
325
319
307
293
327
359
461
441
421
505
587
823
973
1125
1303
1481
1665
1849
2345
2569
2793
2919
3047
2993
2787
2581
2223
1865
977
549
123
-80
-284
-364
-446
-314
-154
5
13
21
85
125
165
197
229
209
187
203
215
225
233
239
249
251
253
257
259
265
267
269
271
271
273
275
279
281
283
287
289
297
303
307
315
321
329
335
355
365
375
387
399
425
439
453
469
483
499
513
539
553
569
583
597
623
635
647
657
669
689
697
707
715
723
731
739
753
761
769
775
783
799
807
815
823
833
843
853
875
887
899
911
923
951
965
979
993
1007
1037
1051
1067
1083
1099
1115
1131
1161
1177
1193
1209
1225
1255
1269
1285
1299
1315
1327
1339
1363
1371
1381
1387
1395
1403
1403
1403
1401
1401
1389
1379
1369
1353
1339
1349
1359
1311
1309
1307
1267
1229
1143
1097
1051
1001
953
903
855
763
721
679
643
607
547
551
557
537
519
499
489
477
469
461
455
449
437
433
429
427
425
423
423
421
423
423
425
427
433
437
439
445
449
457
463
467
473
479
485
489
499
503
507
511
513
517
517
517
517
515
509
505
499
493
485
477
469
451
443
433
425
415
397
389
381
375
367
361
355
347
345
343
343
341
343
345
345
347
349
355
359
361
365
367
371
375
381
385
387
391
395
403
407
411
415
419
425
429
439
445
449
455
459
469
473
477
481
485
491
495
497
499
501
503
503
505
507
507
507
507
507
507
507
507
507
507
507
505
505
505
503
501
499
497
495
493
491
485
483
481
481
479
479
477
477
479
481
485
487
497
503
509
517
525
533
543
563
575
587
599
611
637
649
661
671
683
693
705
725
733
743
749
757
767
771
775
777
779
781
779
777
773
771
767
763
751
743
737
727
719
699
687
677
665
653
639
627
601
587
575
563
551
529
517
505
495
485
469
463
455
449
443
439
435
429
427
425
425
423
423
425
425
427
427
429
429
431
433
435
439
441
449
455
459
463
467
483
497
509
521
533
525
515
561
547
535
581
629
759
749
739
841
943
1081
1221
1555
1703
1853
1977
2101
2869
2781
2693
2601
2511
2293
1905
1517
1051
587
255
-78
-514
-572
-632
-568
-506
-212
-198
-184
-142
-102
-52
-2
87
121
155
181
205
255
265
273
285
297
309
321
337
343
347
349
351
351
349
347
343
339
327
321
315
309
301
295
287
275
271
265
261
257
253
253
251
253
255
259
261
269
275
281
289
295
311
321
329
339
349
371
383
395
409
421
435
447
477
493
509
525
539
551
569
587
605
625
643
663
701
719
737
757
779
809
823
839
853
867
893
905
917
927
939
949
959
977
983
991
997
1003
1011
1013
1015
1015
1017
1015
1015
1007
1001
995
987
979
959
947
935
921
909
877
861
845
839
833
813
793
753
733
713
693
675
637
617
599
581
563
545
527
487
469
449
429
407
367
347
327
307
285
267
247
209
191
173
159
143
113
101
87
75
61
37
27
17
7
-2
-10
-18
-32
-38
-44
-48
-52
-56
-56
-56
-54
-52
-48
-44
-32
-24
-18
-8
1
21
33
45
57
69
93
105
117
129
139
149
157
173
181
187
191
195
197
197
197
195
191
187
181
167
159
151
143
133
115
105
95
87
77
59
51
43
37
31
25
19
11
9
5
3
1
0
0
0
1
1
3
5
11
15
19
23
27
37
43
47
55
61
73
79
85
91
97
103
109
121
125
129
133
137
141
143
145
145
143
143
141
135
131
127
123
117
103
97
89
83
75
67
59
43
35
27
19
11
-2
-8
-16
-22
-28
-40
-44
-50
-54
-58
-60
-64
-70
-72
-74
-74
-76
-78
-76
-76
-74
-74
-70
-68
-60
-54
-50
-44
-38
-22
-14
-6
3
11
29
39
47
57
65
73
79
91
97
101
103
105
105
103
99
95
91
85
77
63
55
45
37
27
9
3
-4
-10
-18
-28
-30
-34
-34
-36
-34
-34
-30
-26
-24
-20
-16
-6
0
3
9
13
19
25
31
37
41
49
57
69
83
95
93
91
29
59
89
139
187
173
159
359
485
609
751
893
1211
1345
1479
1583
1689
1987
2285
2183
2113
2045
1977
1911
1241
843
445
107
-230
-478
-728
-952
-936
-922
-744
-566
-568
-536
-504
-454
-406
-300
-258
-216
-180
-146
-114
-84
-26
-18
-10
11
31
69
83
95
109
121
131
141
161
169
175
181
187
197
199
201
203
205
205
205
205
205
203
203
201
201
201
199
199
199
203
207
209
213
217
223
229
245
255
263
275
285
311
327
341
357
373
379
399
417
437
457
477
497
537
557
577
595
615
653
669
685
699
715
727
741
767
777
789
799
809
827
835
843
849
857
867
869
873
875
877
877
877
873
869
865
859
853
835
825
815
801
787
771
757
723
723
725
703
683
635
609
585
559
533
517
499
437
403
369
343
317
267
259
249
235
219
195
187
177
171
165
163
159
157
159
159
161
163
169
171
173
175
177
179
179
179
179
177
175
171
163
157
151
145
137
123
115
105
97
89
81
73
57
49
41
35
29
17
13
7
5
1
0
-4
-6
-6
-8
-8
-10
-10
-8
-8
-8
-8
-6
-4
-4
-2
-2
0
0
5
9
11
15
19
29
37
43
53
61
71
79
101
113
125
137
149
173
185
195
205
215
231
239
245
249
251
253
253
251
247
241
235
229
211
203
193
183
171
161
149
127
119
109
101
91
77
73
67
63
59
57
55
53
53
53
55
57
63
67
71
77
81
93
101
107
115
121
129
137
155
165
175
185
195
213
223
233
243
251
259
267
281
287
291
297
301
305
307
307
307
305
301
299
295
291
287
283
279
271
269
265
263
259
257
257
255
257
259
263
265
273
279
283
289
295
307
315
321
327
333
345
351
357
361
365
369
373
379
381
383
385
385
385
385
385
385
383
381
379
375
371
367
363
357
347
341
333
325
317
301
291
281
271
261
251
239
219
211
201
193
185
173
165
157
155
151
155
157
159
171
181
171
161
111
149
187
239
289
259
229
457
609
761
875
989
1487
1647
1807
2127
2447
2613
2561
2509
2315
2121
1831
1541
755
407
59
-204
-468
-732
-732
-732
-528
-326
-326
-328
-268
-222
-178
-130
-84
-12
-42
-74
-60
-46
-24
-16
-10
-8
-6
-6
-8
-6
-6
-6
-8
-10
-12
-14
-16
-16
-18
-18
-18
-16
-14
-12
-8
-6
3
11
17
25
33
55
67
79
93
105
121
135
169
173
175
197
217
261
283
303
325
345
363
379
411
425
439
453
465
489
501
513
523
533
553
563
575
585
595
605
617
639
649
661
671
683
707
719
731
741
753
763
775
797
807
819
827
837
855
863
871
877
885
889
895
903
903
905
905
905
899
893
889
881
875
855
841
829
813
799
803
807
767
743
721
697
673
621
595
569
543
517
491
465
413
389
365
343
319
279
261
243
233
221
195
183
171
161
151
143
133
117
111
103
97
89
77
73
67
63
59
57
53
47
47
45
45
45
47
51
53
57
61
73
81
87
95
101
111
119
135
143
151
159
167
181
187
191
197
201
205
207
209
209
209
209
207
203
201
197
195
191
185
181
177
175
171
169
165
159
157
155
153
151
149
149
149
151
151
153
153
157
159
161
165
167
175
179
183
187
191
197
201
211
217
221
227
231
241
245
249
253
257
265
269
271
275
277
279
281
283
285
285
285
285
283
283
281
279
277
275
271
267
265
261
257
253
247
245
241
239
237
231
229
227
225
223
223
221
221
223
223
225
227
233
239
243
249
255
263
271
289
301
311
323
335
359
373
385
399
411
437
449
461
471
481
491
499
515
521
525
529
529
527
523
519
513
499
491
481
473
463
441
429
417
405
393
367
353
339
327
313
301
287
261
251
239
229
219
201
193
185
179
173
169
165
159
159
157
157
157
159
161
163
167
169
173
175
185
187
187
191
195
209
215
219
233
245
243
213
181
211
241
293
343
285
395
505
645
785
1109
1277
1445
1581
1717
1965
2213
2487
2383
2281
2169
2057
1817
1453
1089
677
265
-414
-544
-674
-716
-758
-696
-634
-374
-350
-328
-288
-248
-156
-114
-74
-44
-16
-28
-40
-4
9
21
33
43
61
69
75
83
91
107
115
121
127
133
139
145
157
163
169
175
179
187
191
195
199
201
203
203
205
205
203
203
201
195
193
191
189
185
181
179
177
177
177
179
179
185
189
193
201
207
223
235
247
261
273
289
305
297
317
337
359
381
431
457
483
509
535
559
583
643
669
695
719
743
785
791
797
809
823
843
849
855
859
863
863
863
859
853
849
841
833
811
797
785
771
757
761
765
727
705
683
657
633
579
559
541
505
467
391
355
319
285
251
221
189
133
123
111
89
65
25
9
-6
-20
-36
-48
-60
-84
-94
-104
-112
-120
-134
-138
-144
-148
-152
-160
-162
-164
-166
-168
-168
-170
-170
-170
-172
-172
-172
-174
-174
-174
-174
-176
-176
-178
-180
-182
-184
-186
-188
-194
-196
-198
-200
-202
-206
-206
-208
-208
-210
-208
-206
-202
-196
-192
-186
-180
-164
-154
-146
-136
-126
-114
-104
-82
-72
-62
-52
-42
-26
-18
-12
-6
-2
1
3
5
5
5
3
1
-2
-4
-8
-12
-16
-24
-26
-30
-32
-36
-38
-40
-42
-42
-44
-42
-42
-40
-38
-36
-32
-30
-26
-24
-16
-10
-6
0
3
15
21
27
35
41
57
65
73
83
91
101
109
129
141
151
163
173
193
205
215
227
237
247
257
277
285
293
301
309
321
327
331
335
339
345
347
347
349
349
349
347
347
347
345
345
343
343
345
345
347
347
351
353
363
369
373
381
387
405
415
425
435
445
469
481
493
507
519
543
567
579
593
605
617
637
647
657
665
675
681
689
701
705
709
711
715
719
719
719
717
715
713
711
705
701
697
693
689
681
675
671
667
663
657
653
651
649
649
649
651
651
655
659
665
673
689
703
719
713
707
693
679
759
805
851
839
829
1015
1151
1287
1339
1391
2035
2231
2427
2739
3053
3249
3447
3571
3463
3355
3079
2805
2045
1591
1137
815
495
279
63
-76
-40
-6
137
281
293
325
357
397
437
509
535
561
539
519
529
539
557
561
565
565
567
565
563
561
557
555
551
547
537
533
529
525
519
509
507
503
501
497
495
495
495
497
497
501
505
515
521
527
533
541
559
569
581
591
601
611
623
645
655
665
673
683
697
703
711
715
721
725
729
735
737
739
739
741
745
747
749
751
753
761
765
771
777
785
791
799
819
829
839
849
859
883
893
905
915
927
937
947
967
975
983
989
997
1007
1009
1013
1013
1013
1011
1005
1001
993
987
977
969
945
929
913
919
927
881
855
829
819
809
769
731
647
605
563
523
481
405
369
333
303
271
211
183
155
127
99
77
53
5
-16
-38
-48
-58
-86
-96
-108
-116
-126
-130
-136
-144
-144
-146
-144
-144
-140
-134
-130
-124
-120
-108
-100
-94
-86
-80
-72
-64
-50
-42
-34
-26
-20
-6
0
5
11
17
23
27
35
39
41
43
45
49
49
49
49
49
47
45
41
39
37
35
31
25
23
19
17
13
5
1
-2
-4
-8
-12
-16
-24
-28
-32
-34
-38
-44
-46
-50
-52
-56
-58
-60
-62
-62
-64
-64
-66
-64
-64
-64
-62
-62
-60
-58
-58
-58
-58
-58
-58
-60
-62
-66
-68
-72
-82
-88
-94
-102
-110
-118
-128
-146
-156
-168
-178
-188
-208
-218
-228
-236
-246
-260
-266
-272
-274
-278
-280
-282
-280
-276
-274
-268
-264
-250
-242
-234
-224
-216
-206
-196
-174
-164
-154
-142
-132
-112
-100
-90
-80
-70
-52
-42
-34
-26
-18
-10
-4
5
9
13
17
19
19
17
15
11
7
1
-6
-24
-36
-48
-60
-74
-104
-120
-136
-152
-170
-186
-204
-236
-250
-266
-280
-294
-318
-328
-338
-346
-354
-366
-370
-374
-374
-376
-376
-376
-372
-366
-362
-356
-350
-330
-318
-308
-298
-288
-274
-260
-270
-250
-230
-202
-176
-122
-136
-152
-106
-62
65
149
231
239
247
377
507
833
1015
1199
1379
1561
2125
2325
2525
2589
2655
2371
2087
1829
1417
1007
535
65
-822
-1004
-1188
-1306
-1424
-1174
-1034
-894
-762
-630
-602
-576
-492
-496
-502
-464
-428
-376
-348
-320
-294
-270
-246
-224
-174
-152
-130
-108
-88
-48
-30
-12
5
23
53
67
81
93
105
117
129
149
157
165
173
179
189
193
197
201
203
205
205
205
205
203
203
201
197
195
191
191
189
187
185
185
187
187
189
191
201
207
213
221
229
249
261
273
287
301
317
333
331
351
371
393
415
461
485
507
553
575
597
641
661
683
701
719
747
761
775
787
801
821
827
835
839
845
847
849
849
843
839
833
827
807
791
777
787
799
777
755
701
691
681
639
597
511
467
421
379
337
259
225
191
163
133
127
121
75
65
53
41
29
13
9
3
0
-4
-4
-4
0
3
7
13
19
33
41
49
57
65
81
89
95
103
109
115
119
127
131
133
135
137
141
143
143
143
143
143
143
145
145
145
147
147
149
151
151
153
155
157
159
163
165
167
171
173
181
185
189
195
199
211
219
225
233
241
249
257
275
285
293
303
313
329
339
347
355
361
367
373
383
387
389
391
393
395
395
393
391
389
383
379
375
371
367
363
357
349
345
339
335
329
319
315
309
305
301
299
295
289
287
283
283
281
279
281
281
283
283
289
295
299
305
309
317
325
341
351
361
373
383
407
419
431
445
457
469
481
505
517
529
537
547
565
573
581
587
593
599
601
603
603
603
599
597
589
581
575
565
557
535
525
513
499
485
471
455
423
407
391
375
359
329
315
299
287
273
263
251
233
227
219
215
209
205
205
205
207
209
217
223
229
237
245
255
265
289
299
309
323
335
335
355
373
391
407
433
459
429
473
517
579
643
629
741
855
999
1143
1469
1609
1749
1861
1973
2303
2635
2481
2395
2309
2213
2119
1393
977
561
235
-90
-326
-562
-776
-772
-770
-582
-396
-388
-356
-326
-280
-236
-146
-106
-68
-72
-76
-52
-28
13
31
49
61
73
95
107
119
131
141
151
159
175
181
187
193
199
205
209
211
211
211
209
207
203
199
195
191
185
173
169
163
157
151
143
141
137
137
137
139
139
149
157
165
175
185
211
227
243
243
241
263
285
329
353
377
401
423
469
491
513
533
555
595
613
633
651
671
689
707
739
753
767
781
795
821
833
845
855
867
875
885
901
907
915
919
923
927
927
927
923
921
911
901
891
877
865
877
889
849
823
799
791
783
705
663
621
577
535
495
455
379
347
313
315
315
273
267
259
247
235
217
211
205
199
191
187
181
171
167
163
159
155
147
143
139
135
129
123
117
107
101
95
89
83
71
65
59
55
49
39
35
29
27
23
21
17
11
11
9
9
9
11
13
15
19
21
25
29
39
45
51
59
65
79
87
93
101
107
113
119
131
137
141
145
149
153
155
157
157
157
157
157
155
153
151
149
147
143
143
141
139
137
137
137
137
139
141
143
145
153
159
163
169
175
189
197
205
213
221
239
247
253
261
267
273
277
283
285
287
287
285
279
275
271
265
259
253
247
233
227
221
217
211
205
205
203
203
203
209
215
219
225
229
237
243
259
267
273
281
287
299
303
307
311
313
315
315
313
311
307
303
299
287
279
271
263
255
237
227
217
207
195
185
175
155
145
135
127
117
99
93
85
79
71
67
61
53
51
47
47
45
47
49
51
55
59
65
71
87
97
105
117
127
157
153
149
173
195
239
235
229
267
303
353
403
537
533
631
731
1003
1169
1335
1487
1639
1769
1899
2629
2591
2555
2495
2435
2309
1919
1529
1021
513
-452
-660
-868
-1002
-1138
-1012
-888
-568
-468
-370
-310
-252
-286
-258
-230
-192
-156
-130
-106
-86
-74
-62
-46
-32
-6
3
13
21
27
39
45
49
53
55
57
57
57
57
55
53
51
45
41
37
33
29
25
21
13
11
7
5
1
0
0
0
1
1
7
11
15
21
25
31
37
53
63
71
81
89
111
123
135
149
161
175
187
219
217
215
233
251
293
319
343
351
357
393
429
507
547
587
627
669
745
781
817
847
879
883
903
925
931
939
949
961
977
981
985
987
991
993
991
989
985
981
973
967
951
941
931
919
907
881
867
853
837
823
791
785
781
761
743
723
703
655
639
623
609
595
569
557
545
537
529
523
515
507
505
501
501
501
503
505
507
511
513
521
525
529
535
537
541
547
549
551
551
553
555
555
557
557
557
559
561
563
565
567
569
573
581
585
591
595
601
611
617
623
629
635
641
647
659
665
671
677
685
697
703
711
719
727
735
743
759
767
777
785
793
811
819
827
833
841
847
853
863
867
871
873
875
875
873
873
871
869
863
859
857
853
849
845
841
833
831
829
827
825
825
827
829
831
835
839
843
855
863
871
879
887
905
915
925
933
943
963
973
983
991
1001
1009
1019
1037
1045
1053
1059
1067
1081
1087
1095
1101
1109
1115
1121
1133
1139
1145
1151
1157
1171
1177
1183
1189
1197
1209
1215
1223
1229
1235
1241
1249
1259
1265
1271
1275
1279
1285
1287
1289
1289
1291
1289
1289
1285
1281
1277
1273
1269
1259
1253
1249
1243
1237
1227
1223
1219
1215
1211
1207
1205
1201
1199
1197
1197
1197
1197
1197
1197
1197
1199
1199
1201
1203
1205
1207
1209
1211
1217
1221
1225
1229
1233
1239
1245
1271
1283
1295
1285
1277
1323
1305
1289
1335
1383
1513
1505
1499
1603
1709
1847
1985
2309
2445
2583
2851
3119
3507
3399
3291
3181
3073
2943
2813
2029
1595
1163
841
521
271
221
171
195
219
377
409
441
451
461
489
517
583
599
617
637
659
685
699
715
727
739
749
759
773
777
783
785
789
791
789
789
787
785
779
775
773
767
763
759
755
745
741
737
731
727
717
711
707
703
699
693
689
679
675
671
667
663
655
651
649
647
645
643
643
645
647
651
655
661
673
681
691
701
713
739
753
767
781
797
813
829
863
879
895
909
925
955
967
979
989
1001
1009
1017
1029
1033
1037
1037
1039
1035
1031
1027
1021
1015
995
983
973
959
945
929
915
919
899
879
857
835
789
765
743
719
695
671
647
601
579
557
537
519
481
465
447
431
415
377
363
347
333
319
305
291
263
251
239
227
213
191
181
169
159
147
137
127
109
101
91
83
73
59
53
45
39
33
23
19
13
11
7
5
1
0
0
-2
-2
-2
-2
0
0
1
3
5
7
11
15
17
21
23
31
37
41
47
51
63
71
77
85
93
103
111
127
137
145
155
163
179
187
193
201
207
213
217
223
225
227
229
229
227
225
223
221
219
215
211
205
201
197
193
189
181
177
173
171
167
159
157
153
151
149
147
143
141
139
137
137
137
139
141
141
145
149
153
157
171
179
187
197
207
229
241
253
267
279
305
319
331
343
355
365
375
395
403
409
415
419
425
425
425
425
423
419
415
405
399
393
385
377
361
353
345
337
327
311
305
297
291
283
277
271
261
257
253
249
245
239
237
235
233
231
229
227
227
227
227
227
227
231
233
235
239
241
249
255
259
265
269
277
283
295
301
307
315
321
331
337
341
345
349
353
355
357
357
357
357
357
353
351
349
347
345
343
341
341
339
337
341
343
343
353
361
351
339
383
363
341
389
437
399
361
571
699
829
987
1145
1411
1629
1847
2065
2285
2169
2055
1839
1709
1581
1245
909
223
-52
-328
-488
-648
-712
-644
-578
-444
-312
-322
-332
-318
-296
-274
-250
-228
-192
-196
-202
-194
-188
-180
-174
-164
-160
-156
-154
-152
-148
-146
-146
-144
-144
-142
-142
-142
-140
-140
-140
-140
-138
-136
-136
-134
-134
-132
-130
-128
-124
-120
-116
-112
-100
-92
-86
-76
-68
-48
-36
-24
-10
1
29
45
59
75
89
105
119
149
165
181
195
209
239
253
267
281
295
309
321
347
359
371
385
397
421
433
445
457
469
481
491
513
523
533
543
553
571
577
585
591
599
611
615
619
621
625
625
627
629
627
627
625
623
619
615
611
605
601
595
589
573
565
557
545
535
513
499
485
469
453
461
441
421
399
377
353
329
275
249
221
187
153
89
73
55
31
5
-16
-40
-62
-76
-90
-100
-112
-130
-136
-142
-146
-150
-154
-152
-152
-150
-148
-144
-142
-132
-126
-120
-114
-108
-92
-84
-76
-66
-58
-48
-38
-16
-4
7
19
31
59
73
85
99
113
139
151
163
175
185
195
205
219
227
233
237
241
245
247
249
249
249
249
247
247
247
245
245
243
245
247
247
249
251
255
257
265
271
275
281
287
301
309
317
325
333
351
361
369
379
389
399
409
427
437
447
457
465
481
489
497
503
509
515
521
529
533
535
537
537
535
535
533
523
517
511
503
495
485
475
453
441
427
413
397
367
351
333
327
321
301
279
237
217
195
179
163
135
123
109
99
87
71
65
57
53
49
47
45
45
47
49
53
57
67
73
79
87
93
101
107
123
131
137
145
151
165
171
175
181
185
191
193
193
195
195
195
193
187
185
181
177
171
159
153
145
137
129
121
111
93
83
73
63
51
31
21
11
1
-8
-18
-28
-46
-52
-60
-66
-72
-78
-78
-80
-78
-78
-68
-60
-52
-42
-32
-18
-6
-24
-2
17
45
71
123
135
147
183
217
261
303
415
421
425
503
581
799
925
1051
1181
1313
1551
1777
2003
2097
2191
2177
2165
1879
1717
1555
1147
741
83
-170
-426
-576
-726
-786
-848
-854
-740
-626
-598
-570
-554
-528
-504
-468
-434
-368
-346
-324
-288
-254
-230
-206
-158
-132
-106
-82
-60
-16
5
25
43
61
75
89
117
129
141
153
163
181
189
197
205
211
225
231
235
241
247
253
259
269
275
281
289
295
309
317
323
331
339
349
357
375
385
395
407
417
439
451
463
477
489
505
519
547
545
545
563
581
621
643
667
693
721
741
777
813
851
891
933
977
1065
1109
1155
1199
1243
1325
1361
1397
1427
1457
1451
1445
1487
1503
1521
1535
1549
1571
1579
1587
1595
1605
1615
1617
1619
1619
1619
1615
1613
1601
1589
1577
1593
1611
1571
1547
1523
1521
1519
1473
1427
1331
1281
1233
1187
1141
1059
1023
989
959
931
939
917
897
879
863
845
829
801
787
775
761
747
717
701
687
671
657
641
625
619
599
581
561
541
503
483
461
441
421
379
361
341
323
303
285
267
229
211
193
175
155
117
99
79
59
39
19
0
-40
-60
-80
-94
-110
-138
-150
-162
-172
-184
-192
-202
-216
-222
-228
-232
-238
-246
-248
-252
-254
-258
-264
-268
-272
-276
-282
-286
-292
-306
-314
-322
-332
-342
-364
-374
-386
-398
-412
-424
-438
-464
-476
-490
-500
-512
-534
-542
-552
-558
-566
-576
-580
-584
-584
-586
-586
-586
-582
-578
-576
-572
-568
-558
-554
-550
-544
-540
-534
-530
-520
-516
-512
-506
-502
-494
-490
-486
-482
-478
-470
-466
-462
-458
-454
-450
-448
-442
-438
-436
-434
-432
-428
-428
-428
-426
-426
-426
-428
-428
-428
-430
-430
-430
-432
-432
-432
-432
-432
-430
-428
-426
-424
-422
-418
-416
-408
-404
-400
-394
-390
-378
-370
-364
-356
-348
-338
-328
-308
-296
-284
-270
-256
-226
-210
-194
-194
-194
-174
-154
-112
-88
-66
-42
-20
25
43
61
77
91
113
123
131
137
141
145
147
143
139
135
129
121
105
95
85
73
61
51
39
17
7
-2
-10
-20
-34
-40
-46
-50
-56
-64
-66
-70
-72
-74
-76
-78
-80
-80
-80
-78
-78
-74
-74
-74
-70
-68
-60
-54
-26
-10
3
-2
-10
-78
-40
-2
55
111
267
267
265
397
527
689
851
1211
1363
1517
1833
2149
2465
2347
2229
2089
1951
1847
1745
767
293
-182
-646
-1110
-1592
-1610
-1630
-1464
-1300
-972
-836
-700
-678
-656
-602
-548
-464
-414
-364
-332
-302
-312
-290
-270
-260
-250
-236
-224
-206
-198
-190
-182
-174
-158
-150
-142
-134
-128
-120
-112
-94
-84
-76
-66
-56
-34
-22
-12
0
9
31
43
55
67
77
89
99
123
135
147
159
171
197
211
225
239
253
269
283
313
329
345
363
379
413
423
431
449
465
499
515
547
565
581
599
635
653
671
689
707
745
765
785
805
827
847
867
909
929
949
969
989
1025
1041
1059
1073
1089
1113
1123
1133
1141
1151
1157
1163
1169
1169
1169
1167
1165
1157
1149
1141
1131
1123
1111
1099
1071
1055
1039
1023
1007
995
975
955
935
915
877
857
837
817
799
781
763
717
701
687
671
657
631
621
611
601
593
585
579
571
569
567
567
569
573
577
581
585
591
597
603
615
621
627
633
639
649
651
655
657
659
661
659
659
657
655
651
649
641
635
631
625
621
607
601
595
587
581
573
565
551
543
535
529
523
507
501
493
487
479
467
461
455
451
445
441
437
431
429
427
427
425
425
427
427
429
429
431
431
433
435
435
435
433
427
423
419
413
407
389
