12162
12176
12163
12132
12105
12101
12126
12175
12232
12272
12276
12237
12169
12095
12037
12012
12032
12091
12164
12213
12218
12201
12207
12258
12323
12344
12297
12217
12160
12154
12168
12166
12146
12142
12176
12226
12244
12214
12166
12150
12187
12254
12310
12335
12325
12285
12229
12181
12179
12236
12330
12404
12417
12374
12311
12261
12234
12231
12253
12305
12373
12419
12418
12378
12337
12327
12346
12364
12365
12353
12345
12345
12340
12324
12301
12285
12280
12278
12268
12241
12198
12148
12113
12118
12167
12229
12249
12194
12089
11999
11971
11996
12025
12025
12006
12000
12012
12019
11994
11946
11906
11899
11920
11952
11987
12019
12028
11989
11900
11807
11768
11802
11867
11911
11919
11922
11939
11943
11893
11796
11719
11728
11810
11882
11876
11813
11775
11813
11894
11934
11896
11821
11781
11800
11839
11846
11813
11777
11772
11795
11821
11831
11832
11837
11850
11865
11876
11878
11867
11833
11776
11719
11692
11715
11773
11828
11847
11825
11788
11771
11793
11841
11878
11873
11824
11763
11732
11744
11779
11801
11798
11783
11772
11760
11733
11692
11665
11678
11722
11752
11735
11683
11641
11644
11682
11722
11745
11762
11790
11825
11840
11818
11762
11685
11601
11525
11494
11547
11681
11831
11902
11852
11725
11620
11599
11642
11680
11666
11610
11558
11546
11574
11627
11689
11743
11770
11756
11709
11655
11608
11564
11510
11463
11461
11530
11642
11726
11734
11677
11617
11600
11613
11611
11564
11492
11448
11465
11534
11617
11673
11685
11657
11607
11554
11515
11500
11510
11543
11587
11622
11622
11579
11513
11471
11479
11523
11555
11544
11508
11492
11518
11557
11566
11537
11514
11541
11603
11636
11588
11479
11385
11369
11422
11487
11511
11493
11467
11453
11445
11430
11410
11405
11419
11436
11426
11383
11334
11316
11353
11434
11523
11583
11591
11555
11505
11475
11478
11497
11502
11476
11431
11397
11387
11389
11375
11337
11297
11295
11348
11428
11483
11472
11400
11312
11266
11285
11350
11420
11458
11458
11431
11399
11379
11386
11425
11483
11527
11527
11482
11431
11413
11431
11450
11432
11385
11356
11374
11413
11414
11351
11265
11223
11256
11323
11364
11354
11323
11306
11304
11290
11262
11251
11285
11352
11400
11396
11364
11353
11375
11387
11332
11210
11086
11034
11069
11148
11218
11257
11279
11294
11294
11274
11242
11221
11220
11225
11222
11214
11216
11236
11260
11270
11271
11288
11343
11434
11540
11646
11754
11860
11945
11988
12000
12024
12098
12201
12253
12171
11944
11653
11405
11258
11184
11123
11044
10964
10920
10917
10931
10945
10975
11050
11161
11255
11277
11230
11175
11169
11204
11219
11174
11094
11052
11080
11137
11151
11104
11052
11059
11121
11168
11150
11096
11083
11142
11215
11218
11139
11059
11068
11168
11265
11268
11174
11067
11030
11072
11142
11186
11192
11179
11162
11147
11135
11136
11153
11170
11168
11145
11123
11122
11136
11141
11123
11090
11061
11048
11055
11091
11159
11238
11281
11248
11154
11068
11054
11110
11175
11203
11211
11247
11319
11364
11312
11172
11042
11021
11114
11229
11269
11221
11155
11144
11194
11253
11275
11265
11260
11285
11327
11353
11348
11325
11318
11346
11400
11444
11444
11396
11336
11309
11335
11383
11398
11362
11307
11287
11322
11375
11395
11371
11341
11346
11381
11401
11371
11303
11242
11215
11211
11199
11167
11130
11110
11110
11122
11134
11140
11133
11111
11082
11074
11108
11169
11204
11170
11074
10979
10944
10971
11011
11015
10982
10954
10962
10992
11006
10981
10934
10896
10885
10886
10881
10870
10869
10890
10921
10936
10923
10890
10866
10872
10903
10933
10938
10916
10891
10895
10937
10991
11016
10992
10935
10887
10875
10892
10908
10897
10862
10832
10834
10871
10922
10956
10955
10927
10896
10887
10898
10907
10888
10839
10796
10801
10863
10945
10989
10962
10884
10808
10775
10791
10831
10871
10899
10917
10925
10920
10905
10888
10874
10861
10846
10828
10815
10814
10823
10833
10838
10836
10825
10807
10783
10768
10780
10824
10878
10906
10889
10840
10795
10778
10785
10792
10787
10785
10806
10846
10877
10864
10803
10726
10678
10680
10717
10759
10786
10800
10814
10825
10817
10776
10717
10676
10685
10735
10787
10803
10782
10753
10748
10765
10775
10755
10717
10695
10707
10739
10763
10764
10755
10758
10773
10785
10783
10770
10758
10743
10711
10663
10628
10643
10712
10795
10833
10802
10726
10650
10603
10578
10561
10555
10579
10640
10714
10764
10769
10740
10708
10697
10709
10728
10736
10721
10684
10638
10603
10596
10613
10633
10637
10627
10626
10650
10689
10712
10696
10654
10621
10620
10641
10658
10657
10649
10653
10668
10670
10633
10566
10504
10485
10520
10590
10661
10704
10708
10679
10636
10605
10602
10622
10644
10650
10644
10646
10661
10665
10629
10554
10488
10489
10572
10684
10749
10726
10645
10570
10545
10565
10596
10610
10604
10586
10563
10541
10538
10572
10639
10706
10735
10720
10691
10682
10692
10687
10641
10572
10526
10533
10574
10608
10618
10625
10655
10697
10709
10661
10578
10518
10516
10554
10579
10565
10535
10524
10544
10569
10576
10575
10597
10644
10675
10645
10551
10449
10405
10433
10490
10521
10512
10494
10501
10531
10552
10536
10493
10455
10446
10461
10476
10477
10465
10451
10441
10434
10433
10441
10460
10485
10504
10508
10502
10500
10517
10559
10624
10707
10797
10886
10976
11072
11182
11306
11428
11528
11587
11590
11524
11381
11172
10930
10703
10530
10420
10356
10311
10278
10260
10266
10289
10321
10354
10387
10421
10450
10465
10462
10442
10413
10382
10360
10361
10394
10446
10489
10497
10471
10440
10429
10443
10465
10477
10480
10479
10477
10464
10438
10416
10415
10435
10455
10460
10461
10482
10526
10562
10556
10504
10447
10428
10452
10487
10501
10493
10484
10485
10484
10466
10442
10432
10444
10460
10457
10440
10435
10455
10482
10491
10480
10476
10495
10518
10509
10472
10456
10507
10607
10675
10646
10539
10441
10424
10478
10536
10550
10537
10546
10591
10637
10643
10608
10574
10573
10599
10622
10624
10613
10603
10591
10572
10559
10581
10648
10733
10783
10772
10719
10667
10645
10653
10682
10728
10788
10839
10845
10791
10704
10633
10607
10616
10631
10645
10672
10717
10756
10749
10691
10621
10596
10629
10680
10695
10654
10588
10542
10529
10532
10522
10492
10452
10416
10386
10360
10338
10317
10298
10282
10284
10323
10397
10475
10501
10444
10328
10225
10202
10273
10394
10493
10523
10473
10371
10260
10187
10177
10230
10308
10359
10353
10301
10250
10238
10269
10308
10319
10289
10235
10187
10173
10208
10287
10377
10428
10407
10328
10249
10230
10277
10338
10354
10316
10267
10255
10282
10308
10306
10294
10310
10364
10418
10420
10361
10285
10244
10251
10276
10286
10273
10250
10228
10210
10199
10204
10231
10263
10277
10270
10267
10295
10343
10367
10340
10286
10260
10285
10324
10321
10263
10200
10194
10253
10328
10365
10356
10333
10320
10307
10272
10219
10175
10156
10151
10140
10128
10142
10197
10266
10299
10280
10238
10220
10240
10268
10269
10237
10196
10172
10173
10192
10222
10259
10286
10287
10265
10251
10272
10312
10312
10230
10094
9990
9989
10079
10183
10232
10229
10224
10250
10283
10273
10207
10129
10094
10118
10161
10179
10165
10149
10162
10202
10242
10259
10255
10241
10224
10196
10154
10108
10082
10092
10132
10176
10201
10203
10192
10179
10164
10144
10125
10124
10153
10203
10243
10243
10197
10132
10081
10059
10064
10086
10123
10171
10216
10228
10193
10127
10073
10058
10070
10075
10053
10027
10032
10079
10137
10159
10134
10089
10068
10081
10104
10108
10092
10085
10113
10166
10210
10213
10177
10135
10118
10135
10168
10192
10191
10157
10092
10015
9958
9960
10036
10152
10238
10238
10155
10051
10001
10036
10122
10197
10214
10168
10085
10001
9949
9957
10026
10126
10202
10211
10162
10109
10100
10138
10183
10199
10187
10170
10160
10141
10102
10057
10041
10066
10100
10103
10072
10045
10055
10087
10095
10056
10005
9997
10047
10110
10125
10081
10013
9964
9941
9925
9911
9917
9952
9997
10021
10019
10024
10066
10122
10128
10049
9921
9832
9842
9931
10020
10048
10016
9979
9983
10033
10090
10109
10070
9997
9937
9937
10002
10103
10197
10277
10375
10524
10706
10859
10927
10921
10906
10934
10983
10976
10858
10649
10426
10250
10126
10016
9896
9782
9708
9694
9735
9806
9883
9942
9966
9955
9932
9927
9953
9990
10001
9970
9909
9849
9813
9813
9851
9922
10002
10060
10074
10057
10040
10040
10038
10007
9951
9914
9931
9983
10004
9952
9861
9813
9859
9961
10029
10005
9924
9867
9886
9960
10026
10044
10028
10010
10004
9995
9961
9912
9879
9890
9943
10006
10042
10035
9999
9965
9964
9999
10045
10064
10035
9971
9916
9910
9962
10042
10101
10105
10060
10002
9973
9989
10029
10053
10035
9991
9959
9972
10029
10094
10133
10136
10120
10112
10125
10156
10192
10216
10217
10193
10157
10131
10132
10154
10173
10172
10157
10157
10191
10251
10304
10325
10317
10303
10299
10301
10292
10263
10229
10216
10238
10289
10336
10346
10308
10241
10185
10168
10185
10199
10180
10134
10089
10071
10069
10055
10015
9973
9961
9985
10012
10005
9963
9922
9919
9954
9987
9983
9941
9892
9868
9877
9908
9943
9968
9974
9957
9920
9877
9849
9843
9853
9866
9877
9889
9901
9906
9892
9858
9817
9783
9761
9746
9739
9750
9791
9856
9915
9933
9894
9822
9765
9765
9823
9901
9951
9948
9914
9883
9876
9881
9874
9851
9829
9829
9849
9868
9868
9857
9853
9860
9868
9867
9864
9874
9894
9899
9871
9826
9802
9819
9855
9867
9846
9822
9831
9868
9888
9855
9790
9746
9760
9810
9840
9816
9757
9712
9711
9751
9807
9855
9881
9877
9843
9796
9762
9763
9793
9827
9844
9843
9839
9844
9854
9866
9878
9890
9892
9873
9836
9798
9776
9771
9769
9762
9760
9778
9809
9830
9820
9784
9751
9740
9751
9772
9799
9832
9852
9831
9762
9684
9660
9715
9804
9842
9790
9693
9636
9662
9739
9799
9807
9786
9775
9783
9780
9744
9687
9646
9648
9687
9738
9782
9810
9821
9817
9806
9803
9816
9830
9817
9757
9661
9569
9520
9529
9583
9660
9738
9803
9840
9838
9800
9743
9692
9666
9666
9680
9693
9695
9694
9699
9715
9733
9745
9749
9752
9755
9748
9716
9665
9632
9651
9722
9793
9805
9752
9689
9683
9752
9841
9876
9829
9738
9664
9634
9636
9642
9649
9671
9714
9761
9785
9776
9754
9748
9763
9780
9770
9724
9663
9623
9625
9663
9703
9717
9708
9704
9725
9758
9766
9727
9663
9626
9650
9719
9787
9819
9816
9797
9772
9738
9704
9693
9723
9777
9814
9811
9785
9781
9818
9868
9889
9865
9814
9763
9714
9661
9621
9630
9698
9786
9821
9775
9688
9636
9654
9704
9725
9694
9648
9632
9654
9675
9665
9633
9617
9644
9695
9725
9703
9641
9589
9595
9661
9743
9774
9726
9630
9556
9549
9592
9630
9634
9628
9656
9712
9735
9674
9558
9489
9549
9719
9899
9996
10011
10015
10076
10194
10320
10414
10476
10529
10588
10645
10674
10644
10529
10324
10065
9824
9663
9587
9550
9503
9451
9433
9465
9516
9536
9521
9518
9560
9624
9649
9612
9559
9554
9602
9645
9632
9582
9563
9611
9685
9713
9672
9607
9578
9590
9608
9603
9594
9612
9659
9701
9709
9692
9680
9682
9685
9676
9664
9667
9676
9667
9637
9615
9631
9669
9675
9619
9542
9519
9581
9679
9734
9719
9679
9669
9692
9706
9683
9645
9635
9663
9698
9710
9710
9728
9768
9796
9777
9722
9674
9665
9688
9715
9732
9748
9768
9779
9766
9738
9722
9730
9748
9756
9759
9781
9829
9872
9874
9834
9793
9790
9817
9841
9844
9851
9890
9946
9977
9959
9929
9937
9990
10035
10023
9968
9936
9968
10030
10049
9995
9911
9865
9884
9932
9964
9971
9973
9976
9959
9909
9850
9833
9885
9973
10034
10024
9947
9840
9746
9689
9682
9720
9774
9804
9786
9736
9694
9685
9697
9700
9681
9655
9639
9625
9600
9573
9581
9648
9741
9786
9735
9617
9516
9494
9543
9602
9625
9614
9602
9599
9587
9549
9503
9486
9519
9580
9622
9613
9565
9516
9499
9525
9579
9637
9671
9666
9626
9575
9539
9533
9542
9545
9535
9530
9555
9616
9682
9706
9662
9573
9501
9499
9572
9668
9719
9697
9637
9600
9618
9662
9673
9622
9541
9489
9494
9527
9539
9516
9495
9517
9581
9637
9639
9588
9531
9510
9529
9561
9590
9624
9672
9714
9709
9636
9525
9443
9438
9502
9580
9620
9604
9558
9521
9519
9550
9593
9621
9613
9574
9535
9527
9559
9603
9620
9595
9548
9514
9510
9526
9540
9549
9565
9594
9617
9607
9553
9482
9433
9430
9461
9500
9528
9546
9558
9563
9551
9519
9478
9449
9445
9466
9502
9537
9558
9563
9564
9577
9610
9647
9658
9622
9548
9474
9433
9432
9452
9476
9502
9534
9560
9558
9517
9464
9439
9459
9491
9485
9428
9368
9371
9456
9570
9633
9606
9519
9435
9396
9401
9431
9473
9525
9573
9589
9549
9470
9397
9374
9402
9445
9474
9489
9514
9556
9591
9581
9522
9449
9414
9439
9501
9561
9592
9589
9561
9517
9473
9451
9467
9510
9539
9516
9446
9380
9377
9443
9525
9559
9527
9470
9443
9459
9478
9460
9409
9376
9404
9488
9575
9615
9598
9553
9515
9492
9473
9449
9430
9432
9464
9513
9555
9577
9583
9586
9598
9613
9614
9589
9545
9506
9494
9509
9528
9523
9487
9443
9420
9431
9460
9485
9494
9495
9496
9498
9493
9475
9449
9426
9412
9404
9403
9406
9412
9410
9396
9379
9384
9423
9482
9522
9512
9458
9403
9389
9423
9477
9511
9507
9472
9430
9398
9381
9380
9391
9416
9452
9494
9535
9573
9611
9665
9754
9885
10039
10181
10274
10316
10330
10348
10375
10383
10331
10202
10018
9826
9664
9544
9457
9387
9325
9271
9233
9216
9224
9254
9297
9339
9366
9375
9372
9374
9394
9433
9471
9487
9468
9429
9397
9389
9399
9403
9386
9363
9365
9407
9476
9530
9540
9509
9463
9434
9431
9450
9480
9512
9535
9539
9525
9499
9475
9459
9450
9444
9442
9447
9453
9448
9427
9402
9396
9424
9476
9525
9549
9543
9511
9462
9404
9359
9354
9400
9475
9534
9549
9532
9522
9542
9581
9604
9593
9558
9525
9508
9506
9520
9551
9596
9631
9629
9592
9554
9554
9596
9642
9659
9650
9651
9678
9706
9697
9652
9622
9650
9717
9750
9698
9593
9526
9566
9692
9821
9883
9879
9854
9845
9853
9863
9874
9891
9902
9881
9816
9738
9702
9729
9781
9803
9777
9742
9744
9776
9793
9762
9706
9681
9710
9756
9759
9698
9607
9536
9504
9494
9489
9496
9527
9572
9608
9617
9609
9602
9594
9563
9506
9451
9437
9467
9495
9474
9407
9349
9351
9412
9476
9494
9466
9434
9432
9458
9481
9478
9447
9406
9375
9365
9380
9412
9441
9446
9423
9389
9369
9374
9397
9424
9447
9464
9469
9456
9432
9417
9428
9451
9459
9438
9414
9424
9468
9502
9477
9401
9338
9351
9431
9515
9539
9504
9455
9425
9405
9373
9338
9338
9397
9481
9525
9491
9408
9347
9358
9433
9521
9572
9566
9520
9464
9428
9427
9452
9478
9480
9457
9430
9419
9422
9422
9414
9408
9420
9441
9446
9419
9377
9359
9383
9430
9460
9449
9406
9360
9336
9336
9354
9374
9385
9380
9369
9368
9389
9421
9437
9425
9403
9403
9436
9472
9473
9431
9373
9338
9336
9350
9367
9388
9420
9450
9453
9424
9390
9385
9411
9437
9433
9403
9376
9373
9387
9397
9393
9382
9366
9341
9313
9305
9337
9397
9444
9448
9433
9444
9484
9496
9418
9264
9133
9122
9232
9368
9438
9434
9416
9431
9461
9461
9428
9409
9433
9467
9449
9357
9252
9210
9253
9329
9371
9365
9346
9346
9360
9363
9347
9335
9347
9380
9413
9429
9427
9416
9402
9391
9393
9414
9434
9428
9386
9336
9314
9332
9358
9358
9333
9317
9333
9368
9391
9392
9391
9407
9424
9410
9357
9305
9305
9368
9452
9508
9519
9501
9475
9446
9414
9387
9374
9374
9374
9376
9399
9456
9521
9544
9505
9438
9402
9411
9418
9368
9271
9201
9220
9307
9380
9381
9334
9312
9354
9429
9476
9466
9420
9374
9343
9323
9314
9328
9361
9389
9385
9353
9320
9309
9311
9311
9309
9328
9373
9418
9418
9367
9303
9271
9279
9293
9288
9280
9304
9369
9442
9480
9485
9496
9555
9661
9778
9875
9954
10035
10126
10216
10284
10320
10320
10274
10166
9986
9755
9515
9319
9201
9164
9178
9201
9200
9175
9155
9170
9226
9299
9356
9379
9372
9344
9301
9256
9230
9244
9292
9341
9356
9336
9312
9316
9346
9374
9377
9361
9352
9359
9370
9373
9368
9367
9373
9375
9365
9352
9353
9366
9372
9357
9338
9346
9390
9443
9464
9439
9389
9346
9320
9312
9322
9360
9422
9472
9474
9428
9378
9371
9409
9448
9442
9398
9359
9362
9404
9456
9488
9489
9456
9391
9316
9275
9306
9399
9495
9534
9515
9488
9499
9541
9563
9537
9488
9469
9495
9537
9555
9550
9558
9596
9637
9641
9602
9561
9559
9594
9626
9632
9628
9648
9694
9728
9714
9664
9634
9665
9742
9804
9803
9749
9699
9702
9760
9828
9859
9842
9798
9758
9735
9719
9696
9666
9647
9651
9672
9689
9684
9657
9624
9601
9588
9569
9536
9488
9439
9402
9388
9405
9446
9495
9525
9520
9486
9447
9426
9419
9410
9389
9366
9358
9365
9375
9375
9376
9392
9422
9443
9427
9380
9334
9323
9342
9359
9349
9318
9299
9313
9351
9382
9380
9347
9309
9294
9315
9361
9405
9424
9414
9396
9393
9407
9414
9391
9341
9302
9309
9356
9404
9418
9402
9389
9396
9409
9402
9372
9348
9349
9363
9356
9315
9276
9287
9359
9447
9490
9464
9398
9340
9320
9333
9362
9393
9422
9449
9470
9484
9485
9469
9428
9369
9312
9285
9299
9336
9370
9388
9395
9400
9396
9368
9320
9277
9265
9285
9312
9324
9322
9330
9357
9391
9411
9414
9410
9404
9386
9342
9285
9251
9268
9326
9385
9409
9401
9384
9376
9363
9329
9284
9264
9295
9362
9418
9417
9362
9293
9256
9265
9299
9324
9324
9308
9303
9326
9373
9418
9428
9393
9328
9267
9236
9241
9271
9314
9361
9408
9439
9441
9409
9363
9327
9314
9315
9317
9315
9318
9330
9340
9327
9291
9257
9255
9290
9331
9344
9320
9283
9261
9255
9248
9235
9238
9283
9363
9429
9428
9359
9281
9259
9305
9364
9375
9333
9292
9308
9377
9440
9440
9382
9327
9325
9370
9406
9388
9325
9271
9270
9319
9372
9383
9343
9281
9233
9225
9256
9307
9359
9397
9423
9445
9468
9484
9479
9447
9407
9385
9395
9418
9418
9376
9313
9278
9302
9370
9429
9435
9384
9315
9275
9285
9327
9367
9380
9364
9334
9304
9283
9271
9264
9259
9255
9254
9257
9266
9281
9298
9311
9316
9313
9310
9316
9337
9366
9384
9378
9350
9324
9322
9344
9370
9375
9351
9313
9282
9264
9254
9250
9272
9337
9444
9560
9648
9710
9782
9899
10054
10194
10269
10274
10249
10231
10213
10156
10029
9847
9649
9467
9302
9147
9015
8939
8942
9007
9094
9171
9233
9288
9332
9353
9345
9324
9312
9313
9314
9309
9312
9344
9397
9425
9384
9280
9170
9119
9143
9210
9275
9321
9355
9382
9392
9377
9345
9324
9326
9338
9338
9321
9310
9323
9353
9369
9353
9324
9322
9367
9437
9483
9468
9394
9301
9241
9242
9297
9367
9412
9415
9398
9394
9417
9448
9453
9423
9382
9364
9380
9413
9442
9464
9489
9513
9512
9473
9417
9388
9413
9465
9489
9460
9410
9396
9437
9497
9525
9507
9483
9499
9554
9599
9588
9521
9448
9426
9477
9574
9668
9718
9714
9676
9641
9641
9678
9725
9749
9741
9719
9710
9721
9736
9740
9740
9757
9797
9832
9827
9775
9713
9688
9715
9760
9772
9730
9661
9612
9612
9649
9679
9666
9605
9524
9458
9430
9434
9452
9468
9484
9511
9546
9570
9555
9494
9415
9362
9358
9388
9413
9406
9371
9334
9319
9324
9334
9339
9345
9358
9377
9382
9360
9315
9274
9268
9310
9387
9463
9503
9488
9423
9331
9241
9180
9165
9199
9269
9347
9400
9410
9380
9331
9294
9287
9312
9355
9393
9411
9402
9371
9336
9318
9321
9336
9345
9339
9327
9325
9339
9358
9365
9355
9345
9353
9383
9412
9415
9381
9330
9296
9298
9332
9371
9385
9365
9326
9295
9294
9323
9360
9379
9369
9339
9308
9291
9293
9310
9340
9374
9392
9372
9312
9240
9202
9226
9293
9352
9364
9338
9312
9319
9353
9382
9385
9368
9351
9341
9326
9296
9265
9260
9290
9337
9367
9364
9342
9323
9315
9307
9285
9255
9234
9238
9260
9285
9301
9309
9313
9315
9313
9307
9300
9298
9297
9293
9286
9280
9281
9288
9301
9315
9327
9329
9317
9295
9280
9290
9326
9363
9371
9345
9304
9272
9252
9231
9205
9191
9217
9284
9356
9387
9366
9322
9294
9285
9267
9217
9153
9127
9176
9283
9390
9446
9440
9398
9354
9322
9300
9285
9284
9297
9314
9316
9295
9263
9250
9274
9330
9389
9415
9394
9337
9273
9228
9214
9228
9263
9312
9366
9409
9421
9388
9322
9254
9220
9234
9284
9340
9379
9396
9404
9414
9429
9443
9450
9449
9442
9428
9400
9354
9300
9260
9256
9288
9329
9343
9317
9268
9231
9226
9245
9264
9269
9269
9280
9301
9314
9306
9283
9267
9271
9286
9293
9289
9285
9293
9309
9317
9311
9304
9314
9338
9355
9345
9313
9284
9275
9282
9286
9274
9255
9244
9253
9281
9325
9386
9456
9520
9563
9595
9647
9748
9900
10067
10206
10295
10336
10337
10299
10212
10075
9905
9720
9532
9350
9189
9075
9020
9019
9044
9076
9113
9161
9216
9255
9256
9224
9185
9165
9167
9178
9188
9207
9246
9295
9324
9310
9265
9232
9247
9303
9357
9365
9324
9268
9245
9273
9334
9390
9413
9396
9354
9310
9282
9280
9298
9318
9323
9308
9283
9267
9271
9294
9328
9362
9391
9409
9411
9396
9377
9367
9369
9370
9353
9319
9290
9296
9340
9396
9427
9422
9398
9381
9377
9374
9357
9330
9314
9322
9348
9374
9391
9404
9419
9433
9436
9423
9405
9399
9418
9464
9529
9592
9626
9608
9541
9460
9414
9435
9504
9570
9591
9568
9544
9559
9617
9686
9727
9722
9683
9635
9608
9617
9662
9717
9745
9725
9671
9623
9615
9644
9671
9666
9637
9618
9635
9670
9685
9658
9607
9572
9576
9604
9627
9627
9606
9575
9540
9503
9472
9463
9480
9500
9492
9443
9379
9340
9346
9379
9398
9380
9339
9310
9316
9352
9393
9416
9409
9375
9323
9271
9239
9241
9268
9294
9297
9277
9259
9263
9281
9288
9271
9244
9237
9262
9303
9330
9336
9336
9346
9360
9359
9333
9295
9270
9266
9274
9283
9296
9320
9351
9372
9373
9367
9371
9383
9374
9323
9254
9219
9254
9336
9402
9410
9377
9350
9357
9378
9379
9349
9312
9293
9286
9272
9246
9235
9263
9328
9392
9422
9411
9379
9348
9334
9341
9370
9408
9427
9403
9340
9275
9244
9251
9270
9272
9261
9261
9282
9303
9301
9281
9271
9289
9317
9321
9292
9259
9258
9293
9333
9348
9340
9335
9347
9365
9368
9354
9337
9330
9330
9326
9318
9315
9324
9339
9348
9349
9351
9356
9361
9355
9336
9311
9288
9268
9256
9258
9270
9273
9243
9187
9149
9179
9279
9386
9424
9376
9292
9243
9250
9280
9295
9293
9301
9331
9357
9349
9310
9278
9283
9319
9356
9371
9366
9351
9330
9307
9300
9324
9366
9382
9342
9267
9218
9234
9287
9313
9286
9249
9263
9333
9399
9398
9334
9270
9256
9281
9299
9294
9293
9322
9370
9399
9394
9383
9393
9409
9388
9321
9255
9251
9315
9384
9396
9353
9316
9330
9380
9417
9422
9422
9447
9483
9484
9433
9363
9321
9319
9321
9301
9277
9288
9336
9370
9338
9249
9174
9177
9256
9343
9376
9345
9294
9268
9281
9319
9359
9386
9394
9382
9355
9328
9310
9302
9299
9304
9319
9337
9333
9283
9201
9138
9140
9208
9288
9326
9315
9299
9322
9389
9469
9536
9599
9681
9792
9914
10022
10110
10186
10256
10307
10322
10293
10223
10111
9952
9745
9517
9316
9184
9126
9112
9106
9093
9084
9097
9137
9192
9243
9277
9291
9296
9305
9321
9335
9328
9294
9254
9247
9295
9372
9421
9392
9293
9181
9126
9152
9235
9323
9382
9404
9398
9374
9338
9306
9295
9316
9357
9396
9412
9404
9384
9367
9360
9361
9369
9377
9379
9368
9347
9332
9339
9370
9413
9443
9442
9409
9359
9321
9320
9366
9440
9502
9515
9478
9428
9405
9417
9439
9443
9430
9427
9444
9453
9417
9340
9282
9307
9418
9544
9603
9574
9511
9475
9479
9485
9461
9427
9430
9492
9584
9660
9696
9704
9702
9688
9658
9625
9621
9658
9712
9741
9728
9703
9703
9730
9751
9741
9715
9712
9745
9780
9772
9718
9668
9680
9760
9854
9891
9837
9717
9588
9502
9480
9515
9580
9644
9683
9688
9668
9638
9608
9582
9555
9520
9475
9430
9405
9422
9478
9534
9542
9483
9397
9352
9376
9437
9470
9446
9399
9382
9398
9404
9364
9303
9289
9356
9450
9483
9417
9306
9245
9276
9356
9414
9421
9404
9402
9416
9416
9386
9342
9315
9313
9314
9304
9294
9311
9364
9431
9477
9484
9460
9424
9390
9363
9342
9326
9317
9315
9327
9357
9398
9423
9413
9372
9337
9341
9381
9420
9423
9392
9367
9379
9423
9463
9466
9436
9394
9361
9338
9320
9310
9316
9342
9381
9418
9446
9461
9457
9430
9390
9365
9377
9415
9441
9412
9328
9236
9199
9238
9323
9391
9402
9363
9317
9301
9325
9364
9388
9387
9371
9357
9355
9360
9370
9392
9435
9492
9529
9511
9434
9332
9259
9248
9287
9335
9357
9347
9320
9297
9289
9297
9322
9356
9386
9394
9374
9334
9295
9275
9281
9310
9351
9388
9409
9410
9397
9380
9361
9334
9299
9274
9281
9324
9370
9377
9335
9284
9278
9333
9405
9437
9409
9357
9326
9326
9329
9313
9290
9296
9340
9392
9414
9399
9375
9369
9376
9366
9326
9275
9249
9264
9306
9349
9381
9397
9394
9368
9325
9294
9302
9344
9386
9392
9363
9333
9334
9365
9395
9405
9404
9405
9397
9352
9266
9184
9179
9280
9437
9553
9567
9500
9430
9413
9444
9471
9458
9417
9389
9397
9427
9447
9442
9424
9412
9407
9395
9368
9335
9318
9328
9358
9388
9402
9397
9384
9375
9378
9391
9402
9395
9361
9310
9268
9259
9284
9322
9352
9366
9369
9364
9346
9315
9291
9299
9343
9397
9422
9405
9374
9359
9365
9363
9330
9277
9242
9246
9270
9279
9271
9277
9327
9410
9483
9521
9546
9606
9721
9860
9974
10044
10095
10161
10243
10314
10344
10322
10248
10120
9936
9721
9520
9374
9283
9219
9157
9111
9113
9170
9248
9302
9319
9322
9336
9360
9372
9361
9341
9332
9329
9312
9281
9263
9286
9340
9373
9341
9261
9197
9209
9288
9376
9416
9405
9385
9397
9438
9468
9458
9415
9378
9379
9419
9464
9478
9451
9408
9385
9397
9427
9443
9432
9411
9410
9435
9459
9451
9411
9377
9388
9440
9487
9479
9415
9342
9315
9346
9400
9428
9413
9381
9373
9410
9475
9535
9563
9560
9546
9539
9543
9549
9549
9546
9545
9548
9548
9538
9523
9520
9536
9567
9597
9615
9628
9646
9666
9675
9665
9644
9633
9642
9664
9685
9703
9724
9748
9760
9748
9727
9732
9780
9843
9871
9837
9772
9731
9740
9774
9788
9764
9727
9709
9718
9733
9740
9747
9768
9797
9808
9782
9731
9684
9660
9646
9622
9586
9561
9564
9584
9595
9579
9542
9507
9489
9485
9482
9472
9451
9428
9411
9413
9432
9455
9464
9453
9439
9442
9462
9478
9467
9432
9402
9397
9411
9419
9412
9406
9415
9424
9405
9354
9312
9326
9396
9465
9470
9415
9361
9364
9415
9453
9436
9388
9371
9411
9469
9484
9437
9375
9354
9383
9423
9439
9434
9439
9468
9495
9487
9443
9401
9402
9442
9480
9472
9418
9360
9339
9361
9394
9401
9380
9364
9388
9453
9519
9535
9483
9395
9325
9310
9344
9394
9432
9446
9441
9422
9395
9374
9379
9422
9488
9541
9547
9506
9450
9421
9436
9479
9515
9515
9470
9393
9314
9268
9278
9341
9425
9489
9507
9480
9438
9408
9399
9399
9391
9372
9353
9350
9367
9392
9402
9390
9366
9353
9363
9391
9419
9437
9451
9469
9489
9494
9472
9426
9376
9341
9325
9325
9339
9368
9405
9431
9429
9399
9365
9354
9371
9399
9421
9433
9443
9447
9434
9401
9362
9340
9346
9366
9380
9387
9404
9442
9485
9504
9487
9448
9410
9382
9354
9322
9303
9319
9372
9432
9464
9456
9430
9412
9409
9407
9393
9368
9348
9343
9348
9355
9359
9365
9376
9390
9402
9405
9396
9379
9369
9381
9417
9454
9460
9423
9367
9337
9356
9404
9440
9437
9409
9387
9385
9394
9397
9396
9404
9422
9434
9428
9413
9411
9429
9442
9422
9374
9344
9370
9444
9510
9522
9486
9450
9454
9491
9516
9500
9460
9440
9459
9496
9512
9489
9451
9434
9453
9484
9485
9440
9365
9301
9276
9292
9330
9372
9407
9432
9440
9428
9404
9388
9394
9414
9420
9393
9349
9329
9362
9430
9488
9499
9464
9419
9390
9379
9369
9352
9340
9349
9381
9423
9455
9466
9452
9424
9401
9405
9447
9517
9590
9656
9725
9814
9910
9981
10014
10045
10136
10308
10491
10572
10482
10262
10016
9824
9691
9572
9445
9332
9262
9232
9213
9196
9201
9245
9307
9338
9317
9281
9293
9373
9476
9536
9531
9491
9459
9440
9415
9376
9349
9369
9435
9505
9534
9509
9452
9399
9373
9375
9394
9410
9411
9396
9384
9397
9438
9482
9504
9501
9493
9492
9480
9438
9375
9344
9388
9488
9573
9584
9531
9479
9474
9500
9502
9458
9412
9425
9509
9604
9639
9596
9521
9475
9482
9522
9563
9585
9589
9580
9561
9539
9524
9519
9521
9520
9520
9527
9546
9565
9574
9574
9579
9597
9623
9643
9650
9651
9653
9655
9654
9660
9690
9746
9801
9812
9766
9704
9687
9747
9845
9910
9897
9829
9771
9771
9820
9867
9870
9836
9803
9801
9821
9830
9815
9796
9806
9850
9891
9881
9815
9738
9707
9737
9789
9813
9796
9764
9742
9722
9679
9613
9563
9572
9637
9703
9716
9664
9588
9529
9503
9497
9502
9520
9545
9554
9531
9490
9470
9495
9540
9556
9525
9481
9470
9495
9513
9487
9438
9423
9476
9560
9604
9571
9491
9427
9412
9433
9460
9484
9510
9535
9540
9510
9461
9422
9414
9427
9444
9459
9477
9498
9507
9497
9482
9487
9522
9559
9568
9544
9515
9511
9531
9552
9553
9541
9529
9519
9501
9479
9474
9497
9531
9539
9511
9480
9488
9532
9558
9517
9429
9374
9412
9524
9624
9645
9596
9541
9525
9540
9551
9549
9554
9576
9590
9561
9492
9437
9445
9509
9565
9564
9519
9489
9512
9564
9591
9571
9530
9507
9503
9483
9431
9379
9382
9458
9558
9613
9591
9525
9474
9468
9492
9515
9523
9525
9533
9543
9544
9536
9529
9529
9531
9526
9514
9496
9468
9423
9370
9339
9363
9444
9538
9593
9590
9561
9549
9562
9569
9542
9493
9461
9474
9515
9541
9528
9493
9470
9473
9487
9493
9487
9484
9492
9503
9509
9510
9514
9525
9535
9535
9529
9535
9560
9590
9603
9585
9542
9493
9456
9442
9451
9478
9505
9515
9504
9487
9483
9491
9494
9476
9450
9448
9488
9548
9583
9570
9527
9494
9494
9512
9525
9522
9513
9510
9509
9508
9511
9529
9557
9573
9560
9531
9523
9559
9620
9663
9659
9621
9580
9555
9539
9521
9508
9512
9532
9548
9550
9550
9566
9596
9614
9600
9569
9557
9577
9599
9587
9548
9535
9578
9638
9632
9525
9387
9339
9439
9614
9722
9685
9554
9454
9463
9545
9606
9591
9533
9503
9532
9584
9599
9559
9498
9461
9462
9479
9484
9471
9456
9457
9478
9506
9524
9524
9506
9485
9480
9502
9540
9567
9557
9514
9470
9459
9484
9513
9516
9498
9504
9578
9723
9894
10036
10132
10205
10285
10384
10484
10560
10596
10577
10490
10330
10117
9895
9707
9564
9448
9340
9249
9206
9223
9276
9321
9338
9346
9378
9442
9509
9543
9534
9503
9479
9476
9495
9526
9562
9589
9589
9562
9528
9515
9534
9565
9578
9564
9541
9530
9529
9519
9490
9464
9470
9512
9561
9579
9566
9547
9548
9561
9557
9523
9486
9486
9540
9622
9685
9696
9659
9605
9566
9559
9582
9612
9620
9594
9553
9536
9568
9628
9663
9635
9562
9507
9520
9589
9655
9673
9655
9647
9676
9715
9713
9655
9580
9548
9583
9654
9715
9747
9763
9779
9785
9764
9714
9671
9673
9726
9796
9842
9850
9838
9831
9835
9840
9838
9840
9856
9885
9910
9915
9908
9905
9916
9933
9938
9925
9911
9916
9945
9987
10016
10017
9988
9938
9887
9855
9856
9889
9938
9979
9995
9980
9939
9881
9821
9782
9781
9814
9848
9842
9781
9692
9623
9607
9637
9676
9695
9686
9656
9617
9572
9529
9507
9520
9561
9606
9625
9611
9578
9552
9550
9573
9609
9638
9644
9619
9572
9530
9514
9529
9554
9569
9569
9569
9580
9597
9605
9592
9568
9554
9558
9573
9584
9581
9566
9545
9522
9509
9520
9562
9620
9659
9651
9597
9538
9519
9555
9614
9647
9622
9551
9479
9449
9471
9524
9574
9604
9616
9627
9643
9652
9637
9594
9542
9504
9495
9508
9533
9562
9599
9639
9668
9672
9646
9605
9568
9545
9540
9549
9570
9593
9605
9595
9570
9550
9550
9565
9577
9575
9565
9558
9551
9530
9494
9470
9489
9553
9619
9635
9592
9530
9505
9532
9576
9595
9579
9555
9548
9554
9555
9547
9555
9596
9656
9693
9674
9603
9522
9467
9449
9457
9478
9511
9551
9584
9588
9559
9517
9492
9500
9532
9563
9575
9565
9548
9536
9533
9531
9519
9496
9476
9477
9510
9560
9597
9597
9559
9513
9493
9515
9565
9614
9634
9618
9577
9533
9509
9513
9540
9571
9588
9586
9576
9569
9568
9564
9547
9525
9514
9528
9557
9578
9568
9526
9470
9426
9414
9441
9496
9553
9579
9559
9505
9460
9461
9506
9556
9567
9535
9501
9508
9558
9606
9609
9562
9508
9489
9512
9546
9563
9559
9554
9560
9569
9568
9560
9554
9557
9555
9536
9508
9493
9502
9521
9524
9512
9513
9553
9624
9681
9686
9644
9595
9569
9558
9535
9493
9460
9473
9534
9606
9649
9654
9641
9634
9635
9626
9596
9546
9492
9448
9424
9423
9445
9482
9520
9551
9571
9581
9577
9554
9519
9498
9514
9563
9606
9603
9548
9474
9425
9423
9455
9494
9523
9531
9511
9467
9418
9399
9426
9483
9527
9529
9500
9466
9446
9431
9414
9410
9446
9526
9623
9704
9772
9861
9994
10143
10256
10309
10332
10377
10451
10507
10487
10382
10231
10081
9941
9796
9640
9494
9387
9325
9293
9272
9262
9271
9298
9330
9357
9382
9408
9428
9435
9435
9454
9502
9557
9578
9552
9512
9505
9541
9579
9572
9522
9478
9483
9529
9563
9550
9505
9468
9462
9472
9475
9472
9489
9538
9594
9616
9589
9534
9490
9477
9484
9494
9503
9523
9556
9589
9597
9569
9522
9488
9495
9544
9601
9620
9573
9480
9399
9386
9454
9558
9633
9645
9603
9548
9514
9512
9535
9568
9597
9608
9602
9594
9603
9636
9671
9677
9650
9618
9615
9645
9675
9675
9650
9639
9669
9723
9758
9750
9715
9695
9707
9738
9765
9783
9807
9843
9872
9873
9845
9813
9807
9830
9856
9857
9830
9799
9793
9823
9873
9907
9898
9841
9768
9729
9756
9837
9918
9944
9905
9838
9791
9779
9781
9776
9769
9783
9822
9855
9846
9786
9706
9644
9612
9589
9555
9515
9489
9485
9487
9482
9479
9501
9558
9622
9648
9618
9555
9502
9480
9477
9471
9460
9461
9487
9516
9515
9470
9406
9364
9368
9406
9449
9480
9502
9524
9540
9533
9494
9440
9402
9406
9452
9508
9542
9536
9503
9470
9459
9467
9472
9455
9421
9397
9407
9458
9524
9570
9578
9555
9523
9503
9501
9514
9532
9542
9532
9497
9451
9418
9417
9449
9492
9523
9532
9522
9504
9483
9466
9460
9474
9503
9533
9543
9524
9482
9430
9378
9336
9313
9327
9380
9457
9523
9551
9542
9516
9500
9505
9526
9550
9562
9551
9516
9472
9450
9468
9516
9552
9536
9468
9394
9367
9401
9461
9498
9489
9453
9422
9413
9420
9430
9441
9459
9483
9502
9501
9477
9444
9422
9428
9461
9505
9536
9539
9522
9508
9515
9529
9517
9460
9386
9351
9390
9469
9509
9456
9339
9252
9270
9382
9503
9554
9525
9472
9450
9463
9479
9472
9452
9447
9459
9466
9442
9394
9352
9343
9370
9418
9474
9526
9557
9545
9483
9404
9358
9371
9421
9456
9452
9433
9441
9484
9526
9523
9476
9431
9419
9430
9421
9380
9343
9361
9439
9522
9551
9516
9461
9430
9427
9422
9401
9380
9389
9428
9466
9481
9474
9465
9452
9418
9357
9301
9296
9356
9445
9505
9513
9486
9457
9432
9405
9379
9376
9413
9470
9506
9505
9489
9494
9519
9530
9503
9462
9459
9514
9587
9615
9578
9515
9478
9483
9499
9496
9474
9454
9444
9427
9392
9359
9359
9403
9464
9503
9509
9501
9499
9500
9482
9440
9391
9359
9349
9350
9349
9351
9363
9381
9396
9405
9416
9434
9452
9456
9445
9440
9455
9477
9478
9443
9397
9375
9391
9418
9417
9383
9346
9341
9376
9426
9464
9489
9520
9582
9683
9820
9974
10117
10221
10276
10302
10328
10369
10406
10397
10316
10176
10009
9835
9654
9467
9297
9184
9152
9180
9219
9228
9209
9200
9238
9325
9421
9474
9458
9396
9341
9337
9383
9438
9466
9464
9453
9448
9433
9386
9320
9285
9324
9423
9511
9533
9499
9473
9503
9567
9596
9551
9462
9394
9382
9406
9426
9431
9440
9469
9504
9520
9512
9503
9508
9513
9493
9448
9407
9402
9427
9444
9433
9406
9402
9433
9480
9515
9532
9546
9563
9567
9542
9496
9465
9477
9522
9564
9573
9557
9542
9544
9560
9577
9594
9615
9636
9645
9634
9615
9606
9611
9620
9618
9615
9632
9680
9737
9763
9743
9697
9671
9688
9730
9760
9755
9731
9718
9734
9771
9803
9810
9795
9769
9745
9735
9748
9788
9835
9858
9830
9764
9706
9709
9778
9868
9919
9904
9853
9811
9799
9798
9774
9724
9675
9656
9671
9695
9700
9670
9610
9542
9494
9495
9548
9617
9645
9597
9499
9426
9434
9510
9588
9609
9572
9522
9494
9482
9466
9445
9442
9467
9490
9469
9401
9337
9333
9388
9448
9463
9439
9428
9467
9535
9577
9560
9501
9446
9426
9435
9450
9456
9452
9447
9453
9478
9521
9561
9572
9541
9486
9442
9429
9440
9452
9460
9476
9502
9515
9492
9442
9417
9453
9534
9595
9587
9521
9456
9432
9439
9445
9440
9447
9485
9531
9550
9532
9514
9527
9561
9563
9507
9422
9372
9385
9432
9462
9463
9461
9485
9524
9540
9518
9480
9461
9466
9475
9470
9465
9482
9522
9556
9552
9514
9476
9467
9484
9501
9496
9471
9440
9418
9408
9408
9419
9440
9465
9486
9501
9511
9522
9530
9532
9525
9511
9494
9475
9460
9452
9447
9436
9409
9379
9375
9417
9496
9571
9604
9587
9540
9489
9439
9390
9357
9361
9406
9457
9468
9426
9372
9364
9422
9505
9554
9546
9507
9481
9482
9493
9495
9493
9500
9517
9522
9495
9443
9397
9385
9404
9433
9451
9456
9459
9466
9475
9481
9481
9480
9477
9471
9463
9461
9470
9482
9475
9428
9343
9255
9219
9266
9381
9512
9599
9621
9599
9568
9548
9532
9514
9501
9509
9532
9536
9494
9420
9373
9403
9497
9583
9594
9530
9456
9431
9457
9486
9483
9463
9470
9518
9573
9589
9560
9526
9527
9558
9581
9565
9522
9486
9478
9486
9495
9506
9535
9581
9609
9581
9498
9409
9369
9395
9449
9478
9459
9415
9390
9403
9441
9474
9484
9476
9463
9459
9465
9479
9496
9509
9506
9480
9436
9398
9393
9429
9482
9510
9488
9432
9390
9400
9459
9519
9536
9502
9450
9425
9444
9493
9546
9593
9640
9698
9771
9857
9957
10073
10196
10309
10392
10438
10455
10447
10402
10299
10128
9907
9681
9489
9352
9267
9224
9218
9243
9288
9334
9364
9371
9360
9348
9352
9382
9434
9492
9533
9538
9509
9463
9429
9425
9449
9484
9512
9521
9512
9497
9486
9488
9506
9535
9561
9566
9544
9501
9462
9447
9461
9488
9505
9509
9517
9550
9602
9634
9604
9507
9395
9341
9383
9494
9603
9648
9616
9536
9452
9395
9380
9411
9478
9548
9583
9564
9512
9480
9502
9572
9644
9679
9674
9651
9628
9601
9568
9537
9531
9558
9595
9613
9605
9594
9608
9646
9682
9697
9695
9692
9693
9683
9655
9627
9631
9677
9735
9758
9735
9697
9685
9711
9751
9784
9813
9852
9891
9891
9825
9723
9656
9680
9785
9907
9988
10016
10012
9992
9945
9867
9784
9747
9779
9849
9898
9891
9848
9813
9808
9815
9802
9764
9721
9692
9676
9660
9646
9648
9672
9697
9691
9644
9582
9546
9551
9579
9599
9605
9608
9622
9635
9627
9591
9545
9515
9510
9519
9525
9520
9503
9475
9436
9403
9406
9456
9526
9560
9524
9442
9382
9397
9474
9548
9565
9536
9510
9524
9561
9574
9541
9491
9472
9500
9545
9567
9553
9528
9521
9537
9554
9552
9531
9505
9484
9471
9469
9485
9522
9566
9587
9571
9530
9499
9496
9514
9523
9511
9494
9503
9546
9600
9625
9603
9552
9510
9505
9534
9572
9598
9606
9601
9587
9560
9519
9479
9467
9493
9537
9555
9519
9448
9395
9403
9469
9543
9578
9570
9553
9562
9593
9609
9584
9526
9472
9453
9472
9504
9522
9516
9489
9457
9438
9448
9490
9547
9592
9605
9589
9563
9542
9530
9522
9519
9525
9532
9524
9494
9456
9442
9469
9521
9561
9571
9566
9569
9580
9574
9532
9474
9445
9464
9503
9517
9488
9445
9433
9461
9502
9522
9518
9510
9515
9529
9535
9530
9527
9537
9553
9565
9570
9576
9580
9566
9523
9469
9442
9462
9508
9534
9521
9493
9493
9527
9558
9546
9499
9468
9491
9554
9601
9587
9523
9458
9426
9428
9439
9448
9467
9505
9547
9563
9532
9469
9414
9402
9444
9524
9611
9671
9683
9647
9586
9537
9527
9554
9594
9625
9639
9644
9645
9636
9612
9581
9563
9573
9600
9614
9593
9543
9492
9469
9479
9506
9533
9550
9556
9549
9531
9510
9503
9516
9535
9533
9501
9466
9472
9537
9624
9666
9620
9514
9426
9420
9495
9588
9635
9610
9541
9469
9423
9413
9439
9493
9554
9591
9579
9524
9462
9424
9420
9431
9442
9464
9516
9600
9687
9748
9785
9833
9926
10062
10199
10296
10349
10389
10442
10500
10522
10471
10343
10167
9982
9813
9665
9539
9433
9350
9294
9269
9280
9327
9395
9456
9487
9487
9479
9486
9510
9532
9532
9514
9503
9518
9553
9582
9585
9567
9552
9547
9539
9511
9466
9433
9437
9475
9515
9531
9527
9531
9560
9604
9635
9638
9620
9600
9584
9563
9537
9523
9538
9577
9609
9610
9584
9563
9574
9613
9655
9679
9687
9690
9689
9675
9651
9638
9655
9696
9725
9708
9648
9587
9562
9581
9618
9644
9654
9660
9667
9669
9656
9637
9630
9646
9679
9710
9727
9730
9725
9719
9721
9738
9768
9794
9794
9761
9715
9696
9723
9783
9841
9876
9895
9915
9936
9942
9922
9895
9893
9931
9985
10016
10007
9977
9954
9946
9935
9910
9889
9903
9964
10039
10078
10064
10025
10010
10038
10082
10094
10052
9975
9903
9859
9838
9821
9804
9794
9801
9817
9818
9787
9732
9679
9655
9669
9703
9728
9719
9677
9626
9599
9617
9671
9725
9737
9691
9613
9553
9555
9623
9717
9783
9788
9737
9660
9591
9548
9535
9548
9582
9626
9660
9670
9648
9605
9559
9527
9522
9545
9592
9649
9694
9708
9693
9671
9666
9685
9715
9732
9725
9703
9676
9649
9618
9584
9562
9566
9594
9625
9640
9638
9636
9647
9663
9665
9643
9609
9590
9597
9617
9626
9616
9602
9607
9640
9691
9736
9761
9762
9745
9719
9693
9674
9664
9658
9650
9638
9630
9637
9669
9717
9762
9784
9770
9724
9668
9626
9619
9643
9678
9695
9683
9650
9619
9605
9609
9623
9637
9650
9661
9669
9670
9666
9665
9670
9675
9667
9640
9603
9574
9566
9580
9607
9642
9682
9723
9749
9741
9698
9643
9612
9624
9663
9697
9698
9671
9644
9637
9649
9665
9670
9670
9675
9689
9699
9694
9674
9658
9663
9687
9709
9711
9690
9662
9646
9645
9653
9661
9670
9683
9698
9708
9707
9690
9661
9630
9605
9599
9614
9644
9670
9678
9671
9670
9690
9724
9747
9739
9708
9682
9682
9696
9698
9673
9635
9617
9633
9672
9703
9705
9680
9650
9639
9658
9697
9729
9726
9684
9635
9626
9678
9760
9812
9797
9740
9702
9715
9751
9756
9715
9674
9693
9772
9848
9851
9779
9700
9687
9744
9810
9825
9781
9721
9684
9674
9668
9657
9656
9683
9727
9755
9742
9698
9655
9642
9661
9693
9721
9734
9732
9716
9692
9672
9667
9682
9706
9721
9718
9702
9685
9676
9674
9674
9674
9676
9680
9680
9665
9637
9613
9616
9651
9694
9705
9673
9627
9625
9701
9832
9953
10016
10027
10044
10121
10268
10440
10585
10671
10700
10683
10633
10554
10453
10335
10194
10027
9842
9670
9547
9485
9464
9456
9449
9454
9486
9541
9599
9639
9660
9673
9685
9696
9703
9713
9731
9758
9786
9803
9803
9787
9759
9725
9700
9693
9706
9720
9716
9692
9672
9678
9708
9730
9719
9677
9635
9627
9657
9712
9776
9837
9879
9880
9830
9748
9686
9685
9743
9818
9865
9870
9847
9813
9770
9724
9695
9710
9767
9834
9868
9860
9838
9837
9863
9890
9893
9872
9848
9835
9831
9826
9822
9829
9848
9866
9868
9855
9845
9851
9870
9889
9902
9912
9924
9933
9934
9932
9944
9979
10024
10056
10061
10053
10049
10048
10032
9983
9921
9889
9923
10019
10132
10210
10228
10197
10151
10123
10130
10165
10207
10229
10221
10187
10149
10125
10120
10130
10141
10145
10137
10119
10098
10085
10087
10097
10096
10072
10031
9996
9987
10003
10027
10040
10036
10020
9994
9956
9902
9844
9798
9775
9774
9782
9796
9816
9840
9854
9845
9815
9786
9781
9801
9816
9797
9741
9683
9667
9704
9769
9818
9828
9809
9787
9774
9762
9742
9719
9718
9757
9825
9880
9891
9858
9817
9801
9815
9831
9824
9794
9766
9760
9776
9793
9799
9795
9795
9800
9801
9791
9777
9769
9771
9778
9783
9794
9817
9845
9850
9816
9759
9725
9746
9809
9862
9863
9817
9771
9763
9789
9816
9821
9815
9824
9856
9882
9868
9809
9741
9704
9714
9752
9782
9785
9766
9742
9728
9734
9756
9788
9820
9842
9850
9847
9835
9814
9785
9756
9741
9749
9777
9804
9815
9808
9800
9802
9814
9824
9823
9814
9808
9807
9806
9796
9781
9767
9763
9768
9773
9776
9780
9789
9803
9816
9824
9825
9821
9814
9806
9795
9782
9764
9739
9711
9690
9690
9717
9764
9812
9841
9836
9795
9731
9672
9653
9691
9774
9856
9894
9875
9825
9780
9758
9751
9743
9736
9744
9773
9807
9823
9816
9803
9804
9819
9828
9818
9799
9790
9798
9807
9796
9768
9745
9752
9789
9834
9858
9853
9828
9798
9774
9764
9771
9793
9822
9845
9849
9834
9807
9780
9763
9763
9776
9790
9795
9792
9797
9817
9842
9842
9797
9723
9668
9671
9730
9806
9862
9891
9910
9933
9952
9951
9926
9894
9866
9839
9805
9777
9780
9825
9883
9911
9888
9843
9825
9850
9882
9874
9817
9755
9740
9780
9836
9859
9835
9793
9770
9775
9789
9790
9781
9780
9798
9825
9830
9798
9741
9701
9714
9780
9862
9908
9896
9846
9794
9761
9742
9722
9705
9715
9762
9829
9870
9853
9787
9711
9664
9663
9699
9758
9833
9920
10020
10133
10258
10386
10499
10578
10624
10658
10707
10769
10811
10792
10691
10523
10319
10103
9896
9724
9616
9585
9605
9630
9624
9596
9583
9615
9687
9763
9810
9817
9795
9762
9737
9734
9752
9781
9803
9813
9818
9832
9851
9856
9832
9794
9777
9804
9856
9889
9870
9806
9737
9700
9701
9721
9736
9743
9751
9771
9807
9850
9883
9891
9871
9843
9831
9843
9864
9864
9837
9804
9798
9830
9873
9898
9895
9883
9880
9887
9893
9899
9920
9961
9998
9994
9935
9858
9819
9843
9897
9927
9904
9854
9828
9855
9917
9972
9994
9988
9978
9982
9998
10012
10016
10015
10020
10035
10048
10045
10019
9985
9971
9995
10050
10113
10156
10168
10158
10139
10130
10142
10179
10227
10257
10246
10202
10166
10178
10233
10281
10272
10209
10144
10129
10160
10187
10165
10108
10074
10106
10188
10266
10289
10256
10197
10142
10106
10091
10100
10127
10152
10144
10088
10001
9922
9882
9887
9915
9941
9951
9943
9924
9903
9886
9878
9876
9875
9874
9881
9896
9913
9918
9907
9894
9889
9888
9864
9807
9740
9713
9755
9844
9915
9919
9859
9790
9761
9780
9809
9812
9787
9769
9792
9855
9920
9946
9925
9886
9874
9902
9945
9961
9933
9886
9859
9870
9896
9900
9871
9833
9820
9841
9877
9900
9900
9884
9861
9832
9801
9787
9810
9868
9932
9967
9961
9932
9902
9878
9854
9825
9809
9822
9863
9908
9932
9923
9889
9844
9800
9773
9778
9821
9883
9931
9941
9924
9905
9899
9897
9882
9859
9850
9871
9911
9937
9926
9887
9845
9820
9813
9818
9838
9872
9907
9921
9904
9874
9862
9883
9918
9933
9918
9889
9872
9870
9868
9853
9835
9833
9855
9879
9879
9847
9808
9794
9816
9857
9886
9881
9845
9797
9757
9737
9735
9744
9761
9785
9812
9839
9856
9861
9858
9855
9852
9846
9833
9820
9818
9835
9862
9885
9898
9907
9920
9935
9939
9920
9890
9869
9871
9891
9906
9901
9874
9837
9801
9780
9781
9807
9846
9873
9867
9833
9797
9786
9802
9824
9829
9817
9807
9813
9831
9850
9865
9882
9905
9919
9906
9864
9819
9804
9834
9889
9931
9929
9882
9815
9764
9759
9806
9884
9955
9982
9955
9897
9849
9839
9866
9908
9942
9959
9960
9947
9915
9870
9824
9797
9800
9831
9879
9932
9977
10000
9987
9936
9869
9824
9829
9877
9927
9936
9892
9824
9778
9772
9789
9799
9792
9787
9808
9851
9889
9893
9870
9848
9847
9858
9859
9845
9835
9848
9869
9863
9813
9755
9743
9795
9865
9880
9820
9740
9720
9795
9915
10005
10024
10003
10007
10075
10199
10342
10468
10563
10630
10685
10741
10801
10844
10834
10750
10603
10435
10278
10134
9981
9812
9657
9555
9524
9547
9593
9647
9704
9757
9785
9783
9772
9786
9831
9870
9863
9816
9781
9809
9889
9958
9960
9903
9840
9818
9836
9860
9870
9876
9895
9922
9935
9921
9891
9868
9858
9855
9855
9863
9885
9906
9908
9894
9884
9897
9915
9904
9853
9796
9789
9849
9938
9999
10010
9992
9977
9970
9953
9922
9900
9911
9948
9978
9979
9964
9958
9967
9963
9928
9876
9856
9893
9970
10035
10054
10034
10003
9982
9973
9973
9984
10009
10044
10075
10093
10100
10099
10083
10043
9986
9944
9946
9994
10060
10117
10156
10189
10220
10238
10232
10209
10198
10218
10259
10289
10284
10250
10215
10199
10207
10228
10252
10270
10279
10277
10268
10264
10275
10300
10329
10344
10333
10297
10244
10191
10156
10144
10140
10123
10080
10028
9999
10011
10050
10083
10087
10071
10056
10050
10037
9999
9948
9915
9927
9972
10012
10013
9975
9928
9903
9909
9928
9937
9920
9884
9853
9851
9882
9924
9949
9944
9923
9905
9895
9880
9849
9817
9812
9847
9900
9932
9925
9897
9875
9870
9868
9859
9854
9870
9903
9927
9925
9915
9928
9970
10007
9995
9930
9857
9827
9845
9876
9881
9859
9841
9851
9882
9909
9914
9897
9876
9864
9873
9903
9938
9955
9939
9904
9890
9921
9976
10002
9966
9888
9830
9829
9873
9918
9935
9930
9923
9915
9899
9885
9900
9957
10025
10044
9985
9883
9804
9786
9814
9850
9875
9897
9922
9931
9906
9857
9822
9834
9880
9921
9928
9909
9887
9874
9865
9858
9860
9875
9887
9878
9856
9862
9922
10007
10052
10015
9928
9863
9860
9884
9872
9811
9754
9763
9839
9916
9932
9884
9827
9809
9830
9860
9880
9897
9924
9950
9952
9925
9889
9868
9862
9855
9839
9829
9842
9871
9887
9874
9852
9856
9900
9955
9974
9939
9879
9837
9836
9863
9888
9897
9894
9890
9887
9884
9876
9868
9860
9854
9849
9852
9872
9902
9920
9901
9842
9778
9753
9787
9854
9906
9913
9885
9861
9872
9912
9948
9951
9919
9875
9843
9833
9841
9860
9886
9909
9921
9919
9914
9927
9965
10010
10029
9998
9929
9859
9826
9843
9894
9947
9981
9991
9986
9977
9964
9946
9925
9909
9910
9927
9941
9932
9895
9854
9845
9882
9939
9967
9938
9868
9803
9783
9809
9852
9881
9891
9894
9899
9905
9903
9892
9878
9871
9875
9885
9894
9894
9880
9851
9812
9779
9771
9799
9857
9920
9956
9942
9880
9804
9754
9756
9797
9839
9859
9859
9864
9887
9920
9956
10009
10107
10257
10420
10537
10585
10600
10647
10748
10862
10923
10896
10800
10663
10494
10282
10040
9822
9684
9642
9656
9669
9661
9648
9658
9698
9756
9817
9871
9908
9914
9886
9841
9811
9812
9832
9851
9858
9864
9875
9883
9876
9864
9868
9897
9930
9935
9906
9874
9871
9898
9925
9928
9917
9914
9915
9897
9846
9795
9791
9850
9931
9980
9983
9966
9955
9934
9877
9798
9761
9822
9959
10080
10104
10040
9967
9948
9973
9976
9922
9843
9808
9851
9939
10009
10030
10013
9994
9989
9990
9982
9965
9954
9966
10001
10044
10075
10079
10061
10044
10050
10079
10107
10109
10085
10057
10048
10057
10069
10075
10089
10127
10179
10213
10203
10164
10143
10175
10247
10311
10323
10282
10224
10188
10189
10214
10245
10275
10309
10347
10377
10381
10348
10291
10240
10225
10243
10267
10266
10237
10214
10230
10280
10323
10316
10259
10187
10136
10111
10095
10079
10079
10112
10159
10177
10136
10054
9982
9953
9957
9960
9943
9922
9923
9948
9973
9973
9948
9919
9907
9916
9940
9973
10004
10020
10004
9952
9882
9823
9799
9819
9873
9940
9995
10013
9989
9943
9907
9896
9891
9864
9813
9777
9797
9869
9940
9957
9919
9879
9882
9921
9947
9925
9873
9840
9852
9891
9919
9918
9905
9898
9902
9905
9904
9913
9938
9964
9964
9931
9889
9874
9902
9951
9989
9997
9980
9955
9937
9926
9923
9927
9935
9941
9936
9920
9897
9876
9862
9864
9885
9921
9959
9975
9953
9899
9842
9817
9840
9892
9933
9931
9884
9828
9804
9831
9890
9946
9973
9973
9969
9975
9984
9982
9966
9944
9926
9909
9890
9874
9875
9893
9909
9903
9879
9868
9892
9933
9945
9904
9844
9823
9863
9923
9948
9932
9920
9954
10010
10019
9949
9848
9806
9854
9928
9937
9858
9761
9735
9802
9900
9958
9963
9951
9951
9948
9918
9867
9838
9860
9915
9952
9944
9905
9871
9848
9823
9791
9781
9826
9921
10008
10028
9971
9887
9838
9848
9890
9922
9923
9899
9866
9840
9830
9844
9883
9936
9983
10006
9995
9956
9904
9860
9847
9872
9921
9961
9959
9912
9849
9805
9798
9824
9869
9919
9960
9971
9934
9863
9801
9796
9859
9948
10007
10008
9972
9939
9932
9946
9966
9986
10005
10018
10010
9980
9949
9947
9983
10031
10056
10046
10017
9992
9974
9949
9911
9875
9865
9882
9900
9891
9856
9825
9825
9852
9874
9864
9830
9805
9817
9864
9914
9939
9938
9931
9935
9944
9933
9885
9813
9757
9751
9799
9870
9921
9935
9927
9924
9940
9963
9968
9942
9892
9839
9803
9791
9800
9822
9850
9882
9927
10000
10112
10256
10409
10542
10646
10731
10812
10890
10942
10941
10877
10762
10618
10464
10301
10131
9959
9802
9678
9604
9584
9610
9664
9725
9780
9822
9852
9869
9875
9872
9870
9871
9872
9863
9838
9809
9795
9810
9849
9893
9925
9936
9916
9864
9791
9735
9739
9817
9932
10017
10028
9978
9925
9910
9927
9937
9918
9889
9886
9920
9960
9970
9946
9918
9919
9951
9986
9993
9969
9929
9896
9884
9893
9919
9948
9969
9970
9954
9933
9919
9919
9931
9959
9998
10032
10035
9993
9928
9891
9919
10003
10084
10109
10074
10019
9989
9992
10006
10011
10016
10041
10089
10134
10145
10119
10078
10053
10057
10082
10116
10149
10177
10187
10167
10122
10078
10066
10101
10170
10241
10286
10301
10297
10293
10294
10290
10272
10243
10227
10253
10324
10411
10465
10456
10390
10307
10242
10207
10193
10190
10195
10209
10227
10240
10244
10245
10243
10227
10185
10123
10071
10052
10059
10055
10015
9955
9921
9937
9975
9987
9953
9906
9897
9938
9991
10006
9975
9936
9926
9943
9956
9939
9901
9866
9845
9835
9839
9872
9935
9999
10011
9947
9847
9782
9798
9866
9924
9933
9913
9904
9915
9912
9868
9805
9781
9832
9929
10003
10006
9950
9888
9861
9873
9898
9918
9932
9943
9950
9947
9936
9925
9919
9915
9911
9911
9926
9952
9972
9974
9961
9954
9959
9959
9936
9896
9874
9902
9964
10006
9986
9911
9836
9805
9819
9845
9866
9898
9957
10022
10037
9965
9836
9731
9721
9806
9923
10002
10022
10008
9994
9990
9987
9979
9970
9968
9967
9951
9914
9867
9832
9825
9848
9890
9934
9960
9957
9930
9899
9890
9908
9936
9950
9941
9922
9910
9902
9887
9863
9850
9870
9914
9943
9931
9892
9875
9906
9961
9981
9937
9862
9820
9840
9896
9938
9949
9956
9983
10017
10018
9973
9917
9898
9917
9925
9876
9786
9721
9733
9805
9875
9898
9894
9906
9951
9988
9975
9916
9861
9856
9890
9915
9898
9860
9847
9881
9932
9961
9955
9939
9942
9963
9975
9962
9931
9909
9910
9926
9943
9953
9957
9951
9927
9887
9848
9838
9869
9923
9967
9979
9961
9933
9913
9904
9905
9916
9943
9980
10008
10000
9949
9880
9838
9855
9927
10014
10071
10076
10047
10015
10000
9998
9993
9977
9957
9941
9934
9935
9941
9955
9975
9993
9995
9977
9947
9920
9904
9896
9890
9889
9898
9917
9933
9929
9897
9847
9800
9778
9793
9841
9906
9960
9978
9955
9913
9885
9895
9934
9978
10001
9998
9978
9953
9930
9911
9894
9880
9868
9865
9882
9927
9989
10040
10064
10077
10123
10234
10392
10534
10615
10647
10685
10771
10881
10943
10903
10771
10600
10437
10288
10135
9975
9830
9732
9689
9686
9699
9716
9734
9751
9765
9785
9819
9871
9921
9946
9939
9926
9935
9977
10023
10038
10006
9948
9904
9899
9929
9965
9982
9972
9949
9933
9928
9918
9885
9833
9796
9807
9873
9957
10008
10009
9982
9964
9969
9979
9972
9950
9936
9950
9986
10020
10038
10040
10031
10013
9985
9959
9950
9965
9989
10002
9998
9988
9981
9974
9962
9955
9972
10021
10077
10105
10097
10078
10076
10081
10059
10004
9956
9973
10056
10141
10158
10105
10051
10058
10116
10156
10133
10082
10078
10153
10263
10332
10328
10281
10236
10202
10168
10133
10127
10174
10257
10326
10350
10340
10329
10321
10296
10246
10209
10238
10342
10459
10509
10463
10367
10295
10278
10296
10311
10310
10309
10318
10325
10314
10286
10260
10252
10260
10265
10255
10231
10197
10157
10112
10071
10049
10052
10071
10085
10082
10064
10044
10028
10019
10017
10027
10046
10063
10059
10025
9973
9926
9902
9903
9922
9951
9985
10015
10025
10009
9973
9941
9937
9962
9996
10014
10008
9994
9996
10021
10049
10050
10008
9941
9888
9879
9912
9956
9983
9987
9985
9993
10007
10012
9996
9969
9954
9966
10003
10046
10078
10090
10080
10058
10032
10014
10009
10011
10003
9978
9946
9929
9945
9985
10023
10034
10018
9991
9975
9975
9984
9989
9989
9987
9990
9994
9998
10001
10004
10009
10017
10029
10045
10061
10062
10038
9993
9952
9943
9974
10020
10049
10048
10036
10037
10055
10063
10035
9979
9933
9928
9957
9979
9966
9929
9906
9923
9968
10007
10022
10018
10007
9989
9959
9927
9920
9954
10009
10039
10022
9982
9963
9984
10014
10011
9976
9949
9964
10005
10022
9993
9955
9966
10037
10112
10121
10050
9947
9879
9862
9868
9869
9870
9895
9945
9985
9984
9951
9925
9938
9978
10009
10009
9990
9980
9989
10006
10015
10012
10007
10004
9995
9973
9944
9922
9920
9940
9974
10010
10035
10033
10001
9954
9922
9929
9973
10025
10054
10054
10038
10022
10010
9999
9991
9994
10008
10014
9992
9940
9886
9866
9891
9944
9996
10026
10030
10009
9967
9916
9884
9904
9986
10092
10163
10160
10094
10020
9989
10012
10058
10085
10079
10054
10038
10041
10051
10051
10036
10017
10003
9993
9978
9954
9937
9947
9984
10024
10036
10009
9968
9945
9955
9982
9997
9992
9981
9981
9989
9988
9968
9944
9941
9964
9996
10011
10003
9985
9969
9951
9921
9889
9882
9923
9997
10054
10051
9989
9910
9863
9869
9918
9997
10099
10216
10327
10403
10440
10468
10535
10657
10802
10912
10952
10932
10889
10840
10770
10653
10483
10293
10124
9998
9907
9829
9758
9707
9700
9745
9825
9903
9948
9950
9931
9921
9936
9964
9981
9976
9964
9969
9996
10026
10034
10019
10002
10000
10004
9993
9960
9931
9940
9990
10047
10069
10043
9996
9958
9937
9925
9922
9944
10003
10080
10129
10118
10060
10006
9995
10027
10067
10085
10073
10046
10016
9992
9984
10004
10055
10113
10146
10133
10088
10047
10034
10044
10051
10040
10020
10009
10018
10039
10061
10082
10114
10161
10211
10234
10205
10127
10034
9970
9965
10013
10083
10137
10158
10152
10140
10140
10160
10204
10263
10315
10332
10307
10258
10225
10232
10266
10291
10286
10267
10268
10303
10351
10378
10371
10349
10336
10334
10331
10322
10321
10343
10375
10392
10383
10371
10390
10439
10479
10469
10412
10354
10337
10360
10385
10380
10346
10303
10264
10226
10186
10160
10169
10208
10244
10240
10195
10140
10112
10119
10138
10141
10118
10075
10027
9987
9967
9974
10000
10030
10047
10050
10047
10050
10057
10062
10067
10072
10075
10058
10012
9951
9912
9922
9975
10032
10057
10046
10024
10013
10012
10009
10003
10009
10040
10083
10105
10084
10031
9976
9944
9943
9964
9998
10039
10079
10100
10084
10036
9985
9966
9990
10033
10054
10030
9978
9941
9953
10008
10069
10096
10085
10059
10044
10044
10045
10038
10035
10052
10083
10100
10084
10048
10031
10053
10097
10120
10102
10067
10051
10063
10071
10042
9982
9933
9939
9996
10061
10090
10077
10047
10031
10039
10058
10070
10062
10030
9981
9933
9913
9941
10008
10082
10122
10107
10051
9987
9948
9949
9982
10022
10047
10049
10036
10028
10031
10042
10047
10044
10042
10049
10060
10061
10045
10021
10008
10013
10026
10034
10038
10051
10079
10104
10105
10072
10025
9990
9983
9997
10016
10027
10024
10006
9976
9945
9932
9948
9985
10021
10038
10034
10018
9999
9980
9968
9979
10019
10070
10096
10074
10020
9979
9981
10015
10045
10051
10043
10039
10035
10009
9953
9903
9911
9992
10100
10162
10143
10072
10011
9992
10004
10010
9998
9981
9982
10003
10028
10044
10052
10059
10068
10073
10066
10049
10027
10002
9980
9973
9990
10028
10065
10076
10058
10040
10049
10087
10126
10133
10111
10086
10084
10100
10110
10107
10106
10124
10156
10169
10145
10098
10064
10057
10055
10029
9981
9950
9963
10001
10014
9977
9923
9914
9975
10062
10108
10085
10031
10001
10010
10029
10027
10004
9990
10002
10024
10033
10029
10035
10063
10095
10098
10060
10007
9978
9988
10021
10052
10065
10061
10042
10004
9953
9906
9884
9900
9949
10022
10113
10213
10310
10391
10456
10527
10620
10728
10827
10898
10947
10989
11022
11013
10932
10787
10614
10448
10284
10104
9913
9757
9688
9717
9801
9881
9927
9947
9960
9969
9966
9949
9933
9931
9947
9973
10007
10048
10087
10099
10071
10018
9979
9982
10012
10032
10017
9984
9974
10008
10064
10101
10098
10073
10058
10069
10091
10101
10090
10068
10056
10062
10076
10084
10082
10080
10096
10132
10165
10161
10106
10024
9966
9971
10032
10101
10134
10122
10095
10084
10097
10116
10121
10108
10093
10088
10098
10115
10128
10129
10121
10115
10129
10171
10225
10262
10262
10233
10203
10194
10198
10188
10148
10087
10035
10020
10057
10140
10248
10345
10392
10374
10316
10271
10278
10328
10371
10372
10345
10333
10362
10413
10443
10436
10417
10417
10441
10463
10458
10434
10419
10434
10465
10488
10485
10461
10433
10414
10410
10422
10445
10470
10488
10496
10493
10475
10430
10358
10279
10229
10228
10261
10292
10294
10275
10252
10227
10190
10143
10120
10153
10225
10272
10234
10125
10024
10003
10058
10119
10129
10097
10074
10093
10130
10140
10114
10085
10082
10094
10087
10046
10003
10001
10047
10105
10131
10110
10065
10023
9996
9982
9983
10007
10049
10092
10115
10113
10094
10073
10055
10044
10041
10049
10065
10078
10082
10080
10080
10084
10088
10092
10100
10117
10136
10140
10122
10096
10085
10095
10112
10111
10089
10062
10045
10043
10046
10053
10070
10095
10114
10112
10094
10083
10095
10116
10118
10090
10053
10045
10074
10114
10130
10112
10082
10064
10064
10069
10071
10069
10070
10070
10064
10054
10050
10056
10064
10061
10048
10045
10069
10110
10143
10145
10121
10092
10071
10052
10029
10007
10007
10042
10101
10152
10168
10144
10096
10048
10018
10009
10013
10021
10025
10023
10023
10027
10033
10039
10044
10053
10062
10062
10045
10018
10001
10008
10031
10050
10060
10072
10098
10121
10111
10053
9979
9949
9992
10074
10132
10128
10081
10041
10035
10049
10059
10059
10066
10084
10095
10076
10034
10005
10017
10063
10100
10094
10047
9989
9951
9944
9966
10007
10057
10103
10132
10139
10132
10117
10097
10072
10051
10045
10050
10048
10019
9974
9949
9978
10051
10126
10163
10161
10147
10139
10130
10109
10086
10093
10138
10189
10199
10155
10097
10072
10093
10126
10138
10127
10118
10119
10114
10086
10052
10053
10101
10157
10161
10093
9995
9931
9925
9949
9966
9970
9986
10032
10092
10131
10132
10108
10083
10068
10055
10040
10028
10024
10025
10025
10026
10043
10081
10118
10123
10079
10009
9954
9938
9960
9997
10036
10070
10096
10102
10082
10049
10025
10033
10074
10140
10226
10334
10457
10578
10680
10762
10841
10931
11026
11100
11128
11094
10988
10813
10583
10344
10151
10035
9974
9915
9827
9738
9711
9778
9903
10008
10046
10030
10012
10024
10052
10061
10037
10003
9987
9997
10017
10029
10030
10030
10039
10057
10076
10091
10097
10093
10083
10076
10073
10070
10057
10033
10015
10022
10053
10080
10077
10047
10019
10022
10056
10095
10120
10134
10150
10167
10170
10149
10118
10099
10098
10098
10081
10058
10060
10100
10151
10173
10155
10127
10127
10151
10165
10140
10096
10076
10102
10149
10178
10175
10168
10184
10216
10229
10205
10165
10144
10154
10169
10164
10149
10158
10208
10276
10312
10295
10247
10217
10226
10259
10286
10297
10308
10336
10375
10402
10398
10374
10355
10360
10383
10400
10393
10369
10354
10373
10423
10476
10500
10490
10465
10458
10482
10522
10551
10551
10523
10480
10432
10384
10346
10333
10359
10413
10462
10472
10429
10355
10288
10258
10264
10278
10275
10246
10208
10188
10193
10208
10202
10164
10111
10083
10099
10143
10176
10171
10139
10113
10111
10118
10105
10063
10017
9999
10018
10051
10071
10069
10064
10074
10096
10112
10112
10104
10101
10102
10093
10062
10019
9986
9984
10011
10045
10067
10071
10065
10058
10055
10051
10044
10031
10018
10016
10036
10084
10145
10189
10183
10119
10024
9949
9936
9988
10071
10134
10148
10117
10069
10040
10042
10072
10108
10133
10139
10129
10112
10101
10099
10101
10095
10079
10058
10048
10058
10084
10108
10111
10086
10046
10011
9996
10000
10017
10042
10071
10103
10125
10124
10096
10053
10025
10031
10070
10118
10147
10146
10124
10099
10079
10057
10028
9999
9990
10015
10069
10125
10153
10142
10099
10054
10035
10052
10090
10117
10103
10048
9986
9954
9967
10002
10024
10019
10011
10024
10060
10087
10081
10051
10034
10054
10092
10107
10077
10022
9985
9990
10026
10070
10108
10140
10158
10149
10113
10072
10059
10079
10101
10093
10055
10026
10036
10070
10084
10052
10003
9985
10015
10058
10068
10036
10002
10007
10052
10095
10102
10068
10019
9983
9974
9999
10056
10127
10175
10163
10096
10023
9999
10037
10098
10133
10131
10120
10130
10158
10178
10176
10164
10159
10157
10138
10099
10071
10087
10139
10177
10154
10075
10002
9991
10043
10106
10127
10101
10066
10058
10075
10089
10077
10048
10025
10020
10029
10040
10052
10069
10090
10100
10086
10054
10028
10028
10049
10067
10059
10031
10011
10017
10046
10074
10081
10069
10058
10064
10087
10109
10110
10080
10029
9980
9959
9974
10010
10039
10045
10048
10088
10193
10344
10493
10597
10659
10710
10782
10874
10965
11037
11076
11066
10983
10815
10595
10385
10233
10136
10049
9943
9839
9782
9788
9824
9850
9863
9900
9983
10082
10138
10125
10073
10037
10035
10040
10027
10006
10012
10055
10099
10105
10070
10034
10030
10056
10077
10078
10073
10082
10106
10123
10124
10123
10135
10153
10146
10100
10040
10005
10012
10043
10071
10094
10126
10167
10197
10192
10155
10117
10104
10115
10125
10118
10096
10068
10035
10001
9985
10011
10084
10177
10241
10252
10221
10177
10139
10109
10092
10100
10139
10190
10217
10200
10162
10150
10188
10260
10320
10333
10294
10226
10158
10121
10134
10199
10292
10370
10407
10408
10399
10401
10403
10389
10358
10333
10336
10364
10395
10411
10412
10410
10407
10401
10390
10388
10402
10425
10442
10444
10445
10459
10482
10494
10487
10474
10480
10512
10545
10548
10508
10440
10371
10318
10290
10292
10323
10376
10428
10461
10469
10454
10418
10358
10282
10213
10175
10170
10171
10153
10120
10103
10120
10158
10182
10182
10175
10187
10216
10230
10208
10160
10120
10106
10109
10108
10100
10094
10098
10101
10093
10080
10082
10103
10122
10115
10080
10048
10052
10095
10149
10178
10173
10144
10111
10088
10082
10096
10119
10135
10134
10120
10107
10105
10103
10095
10087
10101
10142
10182
10182
10130
10060
10025
10046
10099
10144
10161
10161
10156
10145
10120
10086
10070
10095
10157
10226
10268
10264
10220
10156
10103
10086
10110
10145
10149
10100
10023
9970
9976
10030
10090
10124
10131
10129
10126
10119
10111
10115
10139
10171
10187
10179
10162
10155
10151
10125
10071
10019
10012
10061
10129
10168
10160
10133
10118
10126
10140
10149
10151
10145
10116
10054
9978
9935
9956
10029
10108
10157
10178
10194
10210
10204
10158
10089
10040
10038
10070
10100
10105
10094
10090
10103
10124
10136
10131
10107
10070
10033
10021
10056
10132
10214
10253
10229
10163
10100
10069
10071
10085
10091
10086
10078
10079
10093
10112
10122
10115
10101
10098
10116
10141
10148
10127
10100
10095
10114
10125
10096
10032
9977
9971
10013
10063
10088
10087
10084
10096
10118
10145
10174
10205
10223
10209
10167
10129
10125
10145
10153
10124
10085
10089
10154
10238
10280
10259
10213
10187
10193
10204
10203
10199
10210
10225
10212
10162
10103
10071
10070
10070
10047
10020
10027
10071
10110
10106
10069
10049
10077
10122
10133
10097
10057
10057
10087
10098
10064
10013
9998
10028
10064
10066
10044
10047
10101
10168
10192
10157
10105
10089
10113
10134
10114
10065
10036
10060
10129
10208
10277
10344
10432
10551
10687
10817
10924
11004
11059
11090
11094
11064
10991
10876
10723
10543
10341
10126
9923
9767
9694
9706
9779
9870
9955
10025
10074
10088
10060
10011
9990
10028
10107
10169
10168
10114
10061
10054
10093
10135
10142
10114
10080
10068
10085
10122
10161
10188
10190
10168
10134
10108
10105
10118
10128
10125
10115
10114
10128
10146
10154
10147
10133
10125
10125
10128
10126
10117
10105
10100
10112
10146
10192
10230
10239
10218
10184
10162
10169
10201
10239
10265
10267
10247
10216
10188
10173
10170
10175
10188
10210
10234
10244
10226
10188
10168
10197
10263
10319
10319
10271
10228
10235
10282
10323
10327
10319
10341
10403
10458
10453
10386
10308
10277
10303
10358
10415
10462
10491
10485
10433
10365
10338
10387
10485
10558
10564
10526
10502
10520
10553
10565
10556
10556
10574
10572
10512
10413
10349
10381
10489
10588
10604
10534
10437
10369
10345
10347
10357
10368
10371
10354
10317
10282
10270
10279
10284
10269
10248
10248
10265
10265
10215
10134
10077
10084
10137
10183
10193
10181
10177
10184
10174
10136
10100
10113
10177
10238
10233
10153
10057
10016
10049
10115
10154
10146
10118
10111
10137
10171
10177
10144
10098
10076
10094
10131
10149
10136
10120
10141
10206
10268
10263
10179
10069
10015
10049
10132
10197
10216
10214
10229
10259
10269
10230
10158
10099
10081
10098
10120
10136
10155
10185
10214
10220
10200
10171
10156
10155
10150
10128
10099
10086
10103
10142
10178
10193
10184
10160
10136
10124
10131
10156
10186
10205
10198
10166
10125
10095
10091
10111
10142
10168
10183
10188
10188
10182
10169
10150
10136
10140
10157
10171
10164
10137
10109
10100
10112
10131
10146
10158
10173
10185
10179
10146
10106
10089
10105
10134
10144
10125
10093
10073
10070
10075
10081
10094
10120
10148
10155
10134
10107
10100
10118
10134
10124
10094
10079
10106
10164
10214
10221
10186
10137
10104
10100
10113
10125
10121
10103
10090
10105
10151
10205
10227
10198
10141
10098
10094
10116
10132
10131
10128
10140
10160
10163
10138
10104
10090
10101
10115
10107
10086
10082
10118
10179
10228
10241
10219
10184
10154
10140
10145
10165
10185
10189
10169
10144
10141
10173
10219
10244
10230
10190
10154
10141
10151
10169
10179
10170
10136
10091
10062
10074
10123
10168
10164
10110
10048
10030
10069
10128
10164
10161
10134
10106
10090
10090
10110
10142
10161
10138
10078
10026
10034
10108
10193
10223
10183
10115
10070
10057
10048
10026
10004
10011
10045
10077
10088
10093
10127
10199
10282
10349
10405
10486
10607
10737
10831
10878
10919
10999
11111
11196
11184
11058
10858
10647
10465
10315
10186
10070
9971
9902
9869
9866
9880
9899
9923
9959
10009
10053
10068
10052
10036
10057
10118
10174
10178
10126
10067
10054
10097
10156
10186
10182
10167
10159
10151
10126
10083
10040
10015
10010
10024
10064
10133
10208
10250
10230
10168
10113
10099
10113
10121
10113
10112
10145
10199
10234
10229
10204
10195
10203
10197
10152
10088
10054
10073
10122
10161
10179
10199
10234
10264
10252
10194
10133
10120
10161
10214
10239
10233
10224
10233
10254
10268
10269
10266
10264
10260
10252
10252
10278
10322
10349
10328
10270
10221
10223
10276
10339
10376
10382
10379
10386
10403
10416
10419
10414
10401
10378
10349
10333
10353
10409
10478
10522
10528
10512
10504
10520
10549
10568
10563
10545
10534
10543
10566
10585
10589
10579
10565
10553
10536
10500
10445
10388
10354
10351
10367
10377
10367
10341
10312
10293
10284
10287
10303
10326
10341
10327
10280
10215
10161
10134
10129
10132
10130
10121
10112
10109
10118
10139
10173
10206
10221
10207
10168
10125
10098
10095
10109
10125
10132
10127
10114
10105
10110
10132
10164
10192
10207
10206
10194
10176
10158
10148
10159
10187
10213
10213
10179
10135
10114
10127
10155
10169
10158
10140
10132
10132
10125
10107
10094
10107
10143
10179
10196
10196
10192
10191
10182
10158
10125
10100
10088
10085
10094
10131
10206
10292
10334
10300
10214
10142
10130
10163
10188
10176
10148
10140
10159
10168
10139
10087
10060
10087
10144
10186
10184
10151
10117
10097
10088
10089
10104
10132
10155
10155
10134
10119
10131
10162
10182
10176
10153
10130
10113
10095
10077
10079
10111
10159
10185
10169
10136
10124
10149
10185
10192
10163
10123
10098
10086
10072
10058
10069
10117
10173
10189
10145
10078
10047
10076
10133
10169
10164
10144
10142
10159
10170
10151
10105
10059
10036
10040
10061
10093
10130
10164
10183
10181
10165
10149
10140
10129
10108
10079
10060
10071
10113
10168
10208
10217
10199
10175
10164
10173
10193
10208
10206
10181
10137
10085
10046
10042
10084
10159
10231
10260
10233
10173
10123
10114
10148
10202
10250
10279
10284
10264
10222
10174
10143
10141
10161
10178
10172
10142
10106
10085
10092
10126
10172
10206
10200
10147
10067
10001
9989
10034
10105
10157
10169
10150
10126
10115
10118
10130
10142
10149
10148
10136
10117
10093
10073
10062
10069
10100
10149
10197
10215
10190
10135
10078
10045
10040
10052
10073
10102
10142
10194
10257
10339
10452
10594
10741
10860
10933
10976
11017
11070
11123
11151
11132
11055
10917
10720
10488
10261
10081
9966
9901
9862
9840
9844
9875
9913
9929
9922
9916
9944
10009
10084
10133
10144
10130
10112
10101
10098
10104
10115
10125
10127
10126
10138
10175
10221
10244
10224
10178
10143
10142
10156
10149
10108
10062
10051
10090
10147
10175
10158
10118
10099
10126
10189
10249
10269
10232
10158
10086
10058
10083
10137
10179
10184
10158
10127
10114
10122
10144
10173
10201
10220
10221
10202
10179
10174
10193
10223
10246
10260
10280
10317
10355
10362
10318
10237
10160
10123
10132
10171
10216
10252
10279
10298
10315
10333
10350
10355
10339
10308
10283
10290
10332
10386
10421
10429
10431
10451
10492
10522
10513
10464
10410
10394
10431
10496
10550
10569
10563
10554
10558
10567
10566
10546
10519
10501
10496
10492
10474
10444
10422
10432
10469
10505
10511
10482
10440
10411
10400
10385
10343
10272
10196
10143
10126
10140
10173
10216
10261
10300
10319
10310
10281
10251
10240
10249
10259
10244
10193
10122
10067
10054
10080
10117
10134
10125
10110
10109
10125
10141
10137
10113
10086
10077
10093
10128
10169
10199
10209
10193
10159
10125
10109
10113
10123
10123
10115
10119
10147
10186
10208
10193
10155
10123
10114
10116
10104
10077
10065
10098
10173
10243
10260
10217
10157
10135
10169
10226
10253
10224
10160
10105
10090
10112
10140
10142
10108
10057
10022
10031
10087
10162
10215
10221
10184
10142
10129
10151
10182
10188
10163
10132
10126
10153
10192
10211
10198
10163
10126
10101
10095
10107
10134
10167
10190
10190
10170
10146
10128
10116
10102
10087
10081
10087
10093
10081
10053
10038
10062
10121
10175
10184
10143
10086
10049
10043
10059
10084
10118
10155
10180
10172
10131
10089
10079
10108
10150
10175
10176
10170
10167
10163
10147
10118
10086
10060
10039
10025
10029
10065
10120
10158
10150
10107
10070
10071
10099
10115
10099
10075
10077
10108
10135
10130
10101
10087
10105
10134
10138
10110
10083
10090
10128
10160
10158
10122
10080
10054
10051
10071
10111
10159
10187
10176
10137
10116
10150
10225
10283
10279
10222
10165
10149
10165
10170
10137
10081
10035
10018
10025
10046
10080
10123
10156
10160
10135
10103
10090
10090
10078
10043
10010
10012
10050
10089
10096
10076
10067
10090
10116
10097
10022
9941
9923
9987
10086
10152
10151
10110
10076
10079
10105
10122
10105
10057
10004
9980
10004
10065
10127
10151
10138
10123
10156
10253
10394
10541
10675
10796
10909
11002
11062
11090
11097
11086
11036
10918
10734
10524
10337
10190
10066
9943
9827
9749
9726
9751
9803
9869
9946
10021
10060
10042
9987
9954
9986
10065
10127
10121
10061
10008
10011
10058
10103
10116
10108
10114
10142
10168
10166
10141
10119
10115
10116
10099
10064
10036
10039
10071
10100
10100
10072
10042
10036
10056
10090
10119
10133
10133
10124
10113
10110
10119
10134
10145
10144
10133
10117
10101
10086
10075
10080
10106
10144
10172
10176
10168
10169
10184
10187
10152
10086
10038
10057
10145
10248
10304
10294
10253
10228
10233
10242
10226
10188
10160
10169
10212
10265
10304
10326
10340
10351
10350
10327
10284
10242
10224
10246
10298
10354
10385
10385
10368
10365
10387
10421
10439
10429
10407
10400
10418
10445
10456
10450
10451
10477
10517
10540
10524
10487
10461
10465
10484
10487
10461
10420
10376
10332
10279
10227
10201
10223
10281
10331
10330
10279
10211
10165
10154
10164
10177
10189
10200
10203
10182
10134
10077
10041
10043
10069
10090
10090
10077
10070
10074
10080
10075
10066
10069
10096
10127
10130
10086
10015
9961
9959
10005
10064
10101
10108
10101
10095
10093
10087
10073
10061
10057
10054
10041
10013
9985
9978
9996
10027
10055
10081
10110
10138
10141
10098
10024
9969
9979
10054
10135
10154
10091
9992
9932
9955
10045
10142
10189
10174
10122
10076
10060
10075
10105
10129
10133
10117
10087
10055
10024
9995
9966
9940
9931
9952
10001
10058
10099
10109
10098
10090
10100
10122
10136
10125
10093
10058
10038
10029
10017
9988
9944
9904
9887
9905
9953
10012
10062
10087
10088
10078
10072
10069
10060
10038
10012
10002
10018
10045
10060
10056
10047
10048
10053
10036
9990
9944
9937
9976
10019
10015
9962
9916
9936
10017
10091
10093
10028
9965
9966
10023
10078
10080
10037
9995
9984
9990
9984
9958
9939
9956
10003
10047
10053
10018
9971
9944
9953
9989
10028
10048
10047
10037
10042
10069
10099
10100
10057
9986
9934
9934
9987
10056
10099
10100
10073
10049
10050
10076
10099
10084
10019
9928
9863
9864
9925
9999
10037
10027
9996
9976
9974
9976
9979
9992
10018
10034
10009
9945
9889
9891
9959
10038
10065
10025
9961
9924
9930
9955
9969
9968
9960
9945
9919
9887
9876
9904
9955
9990
9985
9963
9969
10024
10106
10183
10246
10321
10428
10554
10663
10740
10803
10871
10938
10963
10914
10797
10647
10495
10348
10194
10031
9881
9769
9712
9708
9743
9793
9832
9841
9828
9815
9829
9873
9928
9974
10006
10029
10040
10024
9980
9934
9921
9945
9974
9964
9911
9858
9856
9914
9992
10042
10045
10014
9962
9889
9806
9746
9756
9851
9987
10086
10098
10033
9952
9909
9924
9977
10037
10079
10090
10073
10044
10024
10028
10044
10045
10010
9950
9896
9877
9896
9934
9970
9996
10019
10046
10073
10093
10095
10073
10033
9998
9996
10039
10104
10142
10116
10037
9968
9972
10060
10169
10220
10180
10089
10024
10031
10099
10183
10244
10276
10285
10268
10220
10150
10098
10108
10186
10286
10348
10341
10291
10250
10246
10267
10286
10289
10293
10318
10364
10408
10429
10425
10408
10391
10378
10366
10358
10357
10363
10369
10368
10357
10335
10301
10255
10212
10194
10214
10259
10294
10292
10248
10179
10105
10032
9974
9956
10005
10110
10212
10242
10173
10054
9970
9969
10028
10082
10084
10042
9999
9982
9988
9999
10001
9999
10002
10008
10009
9998
9979
9954
9926
9899
9888
9907
9953
10004
10030
10014
9967
9922
9909
9934
9980
10019
10031
10016
9992
9977
9981
10002
10030
10052
10051
10015
9951
9887
9861
9886
9935
9960
9934
9884
9869
9919
10005
10067
10072
10042
10024
10032
10039
10013
9968
9946
9975
10026
10045
10012
9961
9945
9980
10033
10060
10051
10031
10022
10020
10007
9977
9946
9932
9940
9963
9996
10030
10045
10023
9965
9910
9900
9940
9989
10002
9979
9960
9974
9996
9974
9897
9816
9804
9874
9967
10011
9993
9959
9954
9971
9972
9945
9920
9934
9983
10026
10036
10023
10021
10031
10021
9963
9878
9827
9850
9926
9994
10013
9992
9971
9974
9995
10008
10002
9984
9965
9954
9952
9955
9958
9955
9942
9925
9915
9923
9951
9987
10020
10035
10023
9987
9946
9933
9965
10027
10074
10078
10054
10043
10065
10087
10060
9979
9900
9892
9959
10038
10055
10007
9951
9942
9972
9984
9944
9878
9847
9875
9926
9950
9933
9910
9918
9955
9984
9976
9942
9918
9927
9960
9988
9984
9951
9909
9885
9892
9921
9943
9936
9903
9870
9867
9891
9915
9916
9900
9896
9919
9952
9966
9959
9966
10023
10125
10238
10337
10433
10559
10717
10861
10934
10926
10878
10842
10827
10791
10686
10499
10256
10003
9780
9620
9544
9556
9623
9698
9743
9763
9789
9841
9903
9938
9927
9888
9858
9864
9899
9939
9964
9970
9964
9954
9947
9945
9949
9953
9953
9948
9946
9951
9962
9962
9940
9900
9863
9853
9876
9916
9945
9945
9922
9902
9907
9939
9974
9984
9962
9930
9916
9932
9961
9978
9977
9970
9974
9986
9991
9982
9966
9958
9959
9960
9953
9950
9968
10008
10051
10077
10087
10095
10108
10105
10065
9996
9940
9936
9984
10044
10081
10090
10092
10097
10095
10076
10053
10057
10100
10156
10184
10172
10149
10146
10161
10158
10116
10062
10053
10116
10220
10302
10327
10309
10291
10296
10312
10320
10315
10311
10316
10319
10302
10271
10250
10267
10318
10377
10411
10410
10385
10357
10335
10315
10289
10253
10215
10187
10177
10185
10206
10231
10251
10253
10229
10182
10126
10090
10088
10109
10117
10083
10012
9943
9920
9953
10008
10043
10040
10016
9995
9983
9966
9936
9903
9893
9915
9956
9992
10002
9982
9934
9870
9810
9787
9822
9902
9981
10015
9997
9967
9965
9996
10023
10004
9938
9868
9835
9848
9876
9891
9892
9904
9946
10004
10048
10054
10034
10018
10029
10059
10082
10075
10033
9968
9898
9837
9797
9793
9833
9908
9988
10035
10030
9985
9933
9906
9914
9947
9986
10012
10009
9973
9922
9886
9889
9926
9957
9942
9883
9824
9821
9883
9972
10031
10037
10010
9985
9973
9962
9942
9924
9927
9946
9957
9943
9916
9909
9931
9955
9941
9880
9814
9795
9839
9913
9967
9976
9956
9938
9935
9942
9948
9954
9964
9973
9965
9933
9889
9861
9865
9894
9921
9922
9901
9882
9894
9940
9989
10006
9974
9918
9884
9899
9952
10002
10014
9991
9956
9925
9888
9832
9764
9727
9756
9848
9955
10019
10016
9971
9924
9903
9911
9935
9964
9990
10005
9998
9969
9932
9910
9918
9954
10001
10038
10050
10035
10002
9968
9951
9958
9981
10005
10015
10007
9983
9951
9917
9895
9892
9907
9927
9936
9931
9926
9939
9970
10002
10012
9989
9939
9878
9823
9795
9807
9853
9908
9936
9927
9903
9901
9928
9950
9927
9861
9801
9802
9868
9946
9976
9950
9908
9894
9909
9919
9897
9859
9850
9892
9967
10035
10082
10129
10210
10336
10482
10609
10704
10780
10857
10938
10994
10985
10892
10728
10535
10355
10204
10071
9939
9812
9716
9675
9681
9705
9718
9724
9749
9807
9880
9931
9937
9912
9887
9883
9891
9898
9902
9914
9938
9960
9961
9942
9933
9957
10002
10030
10008
9950
9903
9904
9947
9992
10004
9987
9970
9976
9996
10004
9986
9958
9947
9969
10011
10039
10030
9986
9933
9905
9919
9969
10031
10077
10091
10076
10048
10025
10016
10018
10023
10025
10024
10023
10023
10027
10035
10044
10053
10059
10058
10045
10019
9987
9968
9985
10047
10137
10213
10235
10200
10139
10096
10089
10102
10110
10106
10112
10145
10195
10229
10224
10194
10176
10195
10241
10282
10297
10293
10294
10309
10325
10323
10307
10292
10294
10309
10317
10309
10290
10278
10285
10309
10337
10358
10362
10348
10325
10310
10316
10341
10363
10358
10321
10269
10224
10197
10182
10172
10170
10185
10209
10217
10185
10119
10054
10033
10070
10144
10213
10242
10222
10162
10090
10030
9999
9994
9993
9976
9936
9895
9879
9900
9947
9997
10033
10052
10064
10075
10084
10082
10063
10029
9990
9963
9961
9980
10002
10007
9992
9977
9984
10021
10068
10100
10102
10078
10039
9993
9953
9938
9958
10001
10029
10013
9962
9925
9945
10015
10078
10081
10024
9952
9915
9918
9934
9943
9949
9971
10007
10033
10034
10023
10030
10063
10096
10094
10052
10008
10002
10037
10078
10081
10035
9970
9925
9925
9962
10012
10048
10051
10018
9964
9919
9910
9941
9994
10035
10046
10034
10015
10003
9993
9975
9947
9919
9910
9925
9959
9996
10027
10048
10061
10063
10047
10013
9976
9956
9966
9997
10023
10016
9971
9908
9861
9856
9894
9951
9990
9985
9942
9898
9895
9945
10020
10072
10070
10031
9993
9983
9991
9988
9964
9938
9934
9953
9971
9974
9973
9989
10023
10049
10041
10004
9969
9959
9967
9966
9950
9937
9943
9959
9959
9937
9924
9952
10013
10055
10033
9961
9904
9912
9976
10042
10065
10051
10035
10035
10041
10037
10026
10023
10030
10027
10011
10003
10039
10111
10162
10133
10028
9923
9902
9978
10083
10131
10096
10024
9973
9962
9969
9968
9966
9982
10016
10042
10036
10004
9977
9978
9995
9999
9978
9953
9954
9984
10009
9999
9958
9927
9946
10011
10079
10099
10058
9983
9915
9874
9864
9878
9911
9954
9984
9978
9938
9901
9910
9976
10067
10139
10187
10241
10340
10479
10615
10711
10769
10823
10893
10954
10959
10880
10737
10573
10417
10266
10107
9946
9811
9729
9707
9732
9782
9840
9891
9921
9927
9918
9907
9902
9899
9895
9899
9922
9965
10007
10022
10007
9984
9981
9998
10012
9999
9965
9939
9945
9981
10021
10043
10045
10037
10027
10013
9991
9968
9955
9957
9962
9959
9949
9947
9966
9997
10019
10015
9998
9999
10037
10094
10125
10100
10033
9976
9967
9995
10011
9979
9914
9870
9886
9952
10024
10070
10091
10105
10107
10081
10022
9967
9967
10033
10118
10157
10122
10051
10005
10012
10051
10088
10111
10129
10146
10147
10120
10081
10072
10119
10205
10281
10306
10280
10232
10189
10161
10143
10137
10153
10192
10243
10290
10321
10334
10329
10307
10277
10258
10267
10301
10335
10339
10304
10250
10210
10197
10209
10230
10252
10276
10299
10308
10291
10248
10200
10174
10182
10209
10224
10202
10150
10102
10092
10124
10164
10172
10134
10077
10041
10041
10057
10057
10029
9992
9969
9965
9964
9955
9946
9954
9983
10016
10032
10024
10005
9991
9985
9979
9965
9946
9932
9927
9924
9912
9888
9867
9870
9909
9971
10023
10031
9992
9940
9919
9940
9973
9975
9936
9894
9896
9947
10006
10026
10005
9978
9976
9985
9969
9921
9883
9904
9988
10084
10129
10110
10066
10036
10030
10024
10001
9970
9951
9950
9958
9966
9980
10002
10018
10010
9977
9946
9947
9978
10008
10006
9971
9929
9901
9891
9893
9908
9944
9993
10028
10027
9995
9960
9943
9939
9933
9926
9938
9976
10014
10014
9970
9920
9913
9948
9977
9956
9899
9868
9905
9990
10054
10054
10007
9964
9959
9976
9983
9968
9953
9961
9984
9997
9984
9958
9946
9957
9975
9974
9942
9894
9862
9869
9915
9975
10016
10021
9998
9974
9964
9963
9951
9926
9911
9932
9986
10031
10024
9962
9889
9856
9880
9936
9991
10031
10052
10043
9995
9920
9870
9896
9998
10112
10158
10112
10021
9956
9939
9943
9933
9913
9915
9950
9987
9984
9944
9912
9932
9993
10042
10036
9986
9941
9940
9975
10014
10035
10039
10040
10038
10031
10020
10017
10030
10055
10076
10085
10083
10065
10026
9973
9932
9934
9978
10026
10026
9971
9900
9865
9880
9918
9952
9984
10027
10067
10064
9996
9902
9859
9910
10011
10074
10048
9966
9903
9894
9915
9920
9902
9894
9917
9952
9964
9949
9939
9965
10008
10021
9980
9916
9881
9897
9936
9960
9965
9977
10018
10080
10143
10209
10300
10428
10570
10688
10766
10825
10888
10944
10953
10880
10734
10557
10389
10244
10112
9987
9876
9789
9732
9704
9702
9723
9753
9777
9789
9800
9826
9871
9917
9944
9949
9943
9933
9918
9895
9878
9893
9943
10005
10037
10024
9986
9959
9955
9959
9951
9937
9945
9988
10042
10066
10037
9975
9927
9923
9957
9989
9990
9961
9931
9932
9967
10012
10034
10023
9994
9972
9970
9978
9985
9993
10012
10040
10049
10011
9936
9878
9890
9976
10073
10112
10081
10033
10032
10087
10141
10132
10054
9962
9923
9958
10032
10095
10122
10116
10094
10067
10043
10032
10049
10099
10167
10228
10258
10254
10230
10205
10188
10178
10175
10177
10189
10204
10207
10183
10142
10119
10153
10244
10345
10395
10369
10302
10258
10267
10308
10334
10325
10304
10308
10342
10380
10395
10383
10363
10343
10319
10287
10266
10280
10323
10351
10319
10225
10118
10057
10058
10085
10097
10085
10070
10073
10091
10101
10090
10060
10026
9997
9982
9988
10014
10047
10058
10034
9994
9981
10015
10071
10094
10058
9989
9945
9955
9996
10017
9995
9957
9946
9972
10005
10009
9982
9953
9944
9942
9914
9852
9792
9784
9846
9942
10014
10032
10007
9968
9933
9903
9880
9878
9915
9979
10036
10052
10025
9981
9947
9923
9898
9872
9865
9892
9937
9964
9951
9916
9902
9934
9994
10043
10052
10025
9981
9939
9912
9910
9936
9977
10001
9980
9924
9872
9860
9886
9913
9915
9905
9916
9960
10009
10022
9989
9940
9915
9926
9952
9966
9964
9956
9953
9951
9943
9930
9918
9910
9903
9895
9892
9902
9915
9915
9898
9876
9872
9892
9916
9915
9885
9851
9847
9887
9955
10014
10035
10006
9938
9863
9815
9814
9852
9903
9939
9952
9947
9936
9925
9918
9922
9941
9968
9982
9969
9934
9900
9888
9896
9909
9920
9928
9935
9930
9905
9868
9839
9834
9843
9846
9840
9847
9882
9930
9956
9943
9919
9920
9948
9960
9915
9833
9781
9809
9898
9977
9992
9953
9909
9887
9878
9865
9858
9886
9948
9998
9987
9918
9848
9832
9869
9906
9898
9855
9821
9826
9858
9885
9895
9904
9926
9951
9959
9940
9913
9904
9918
9939
9951
9955
9962
9972
9973
9953
9924
9914
9942
9997
10046
10064
10055
10044
10047
10052
10030
9966
9887
9838
9847
9894
9931
9927
9896
9880
9902
9941
9957
9935
9897
9878
9885
9897
9896
9888
9894
9918
9937
9930
9905
9891
9903
9920
9911
9875
9846
9857
9897
9925
9913
9879
9864
9888
9925
9932
9900
9852
9820
9813
9823
9843
9877
9923
9966
9993
10023
10101
10253
10450
10619
10707
10724
10729
10768
10830
10862
10821
10708
10554
10389
10222
10051
9882
9734
9628
9575
9575
9616
9681
9749
9797
9812
9800
9781
9777
9793
9815
9821
9803
9778
9780
9830
9913
9985
10000
9952
9879
9830
9830
9864
9907
9941
9961
9962
9940
9901
9874
9885
9929
9967
9964
9929
9906
9922
9951
9936
9859
9770
9747
9816
9924
9990
9982
9944
9935
9973
10018
10024
9989
9947
9929
9931
9932
9926
9927
9950
9989
10020
10027
10015
9997
9983
9974
9972
9981
10002
10024
10033
10026
10016
10022
10046
10075
10092
10085
10056
10018
9991
9996
10041
10115
10186
10223
10218
10187
10159
10148
10155
10177
10212
10258
10294
10293
10240
10154
10081
10060
10100
10172
10236
10271
10279
10280
10289
10307
10323
10326
10314
10298
10294
10308
10327
10330
10309
10272
10239
10222
10215
10210
10202
10200
10216
10244
10272
10279
10255
10202
10132
10064
10020
10009
10026
10048
10055
10043
10022
10003
9990
9984
9990
10012
10041
10052
10020
9950
9881
9855
9888
9949
9992
9988
9944
9892
9865
9876
9915
9951
9949
9901
9836
9811
9860
9962
10048
10057
9995
9927
9913
9960
10014
10025
9988
9945
9935
9958
9988
9999
9992
9974
9950
9919
9893
9891
9924
9977
10013
10012
9983
9954
9944
9950
9952
9944
9935
9939
9959
9982
9991
9976
9944
9911
9895
9906
9936
9965
9977
9972
9963
9954
9939
