722
748
776
828
840
854
868
882
894
906
922
926
932
934
936
932
928
926
920
916
910
904
892
884
878
872
866
856
850
846
842
838
834
830
822
818
814
808
804
790
780
772
762
752
726
710
696
702
708
686
666
622
596
570
544
518
474
444
414
380
348
314
282
216
184
150
116
82
16
-13
-45
-75
-105
-137
-159
-183
-203
-223
-229
-237
-261
-269
-279
-287
-295
-307
-309
-313
-315
-319
-319
-321
-321
-321
-321
-321
-321
-321
-321
-321
-321
-321
-323
-323
-325
-327
-329
-331
-333
-337
-337
-339
-341
-343
-345
-345
-345
-345
-345
-345
-345
-343
-341
-341
-339
-339
-339
-339
-339
-341
-343
-349
-353
-359
-365
-371
-379
-387
-407
-417
-429
-441
-453
-481
-495
-509
-523
-537
-551
-565
-591
-603
-617
-629
-641
-663
-673
-683
-691
-701
-709
-719
-733
-739
-747
-753
-759
-769
-773
-779
-783
-787
-793
-795
-799
-801
-803
-803
-805
-807
-805
-805
-805
-805
-801
-799
-799
-797
-795
-793
-791
-789
-787
-787
-787
-787
-791
-793
-795
-799
-803
-815
-821
-827
-835
-843
-851
-861
-881
-891
-901
-911
-923
-945
-955
-965
-975
-985
-995
-1005
-1023
-1031
-1041
-1047
-1055
-1069
-1075
-1083
-1087
-1093
-1103
-1107
-1111
-1113
-1117
-1119
-1123
-1127
-1127
-1129
-1129
-1131
-1133
-1133
-1133
-1133
-1133
-1133
-1135
-1137
-1139
-1143
-1145
-1149
-1157
-1161
-1167
-1173
-1179
-1193
-1199
-1207
-1213
-1221
-1227
-1235
-1247
-1251
-1257
-1261
-1265
-1269
-1269
-1269
-1267
-1267
-1263
-1259
-1247
-1239
-1233
-1223
-1215
-1195
-1183
-1173
-1161
-1149
-1135
-1123
-1097
-1081
-1067
-1051
-1037
-1005
-1003
-1003
-987
-971
-935
-913
-893
-871
-849
-825
-801
-751
-725
-701
-675
-651
-605
-583
-563
-553
-545
-531
-519
-497
-489
-481
-473
-467
-459
-455
-451
-449
-447
-443
-441
-439
-437
-435
-431
-427
-419
-413
-407
-399
-393
-375
-365
-355
-343
-331
-315
-301
-271
-253
-235
-233
-231
-195
-173
-153
-127
-101
-71
-31
8
-3
-17
32
80
242
358
474
622
770
1112
1308
1506
1726
1946
2132
2318
2556
2578
2600
2504
2408
1972
1676
1382
1026
670
132
-59
-251
-335
-421
-415
-409
-165
-171
-179
-171
-163
-139
-119
-101
-83
-65
-59
-55
-35
-25
-17
-7
0
16
24
32
40
48
56
64
80
90
98
108
116
136
146
156
166
176
196
206
214
222
232
240
248
262
268
276
282
288
300
304
310
314
320
326
332
344
350
356
364
372
388
398
408
420
432
458
472
486
500
516
518
522
556
576
596
616
636
680
702
726
750
774
798
824
874
898
924
948
972
1016
1036
1056
1066
1076
1102
1112
1124
1132
1140
1146
1154
1162
1164
1166
1166
1166
1162
1158
1154
1148
1142
1134
1126
1104
1090
1078
1062
1048
1060
1040
1020
996
972
922
894
868
840
814
788
762
714
692
672
660
650
622
610
598
586
576
568
560
546
540
536
532
528
522
520
518
516
516
514
514
514
512
512
512
512
510
508
506
504
502
498
494
490
486
482
476
472
460
454
448
442
436
422
416
410
404
398
392
386
374
368
364
358
354
346
340
336
330
326
316
310
304
298
292
284
278
260
250
242
232
224
204
194
184
174
164
154
142
124
116
108
102
94
84
80
76
74
72
70
72
72
74
76
78
80
86
90
92
96
98
102
104
106
106
106
104
102
98
94
90
86
80
68
62
54
46
38
20
10
0
-9
-19
-29
-41
-67
-79
-93
-107
-121
-151
-167
-183
-199
-215
-221
-227
-265
-285
-305
-325
-345
-385
-403
-423
-439
-455
-469
-483
-509
-519
-531
-541
-551
-567
-573
-579
-583
-589
-595
-597
-599
-599
-601
-599
-599
-597
-593
-591
-587
-585
-577
-571
-567
-561
-557
-551
-545
-535
-529
-525
-519
-515
-507
-503
-501
-497
-495
-493
-491
-491
-489
-489
-489
-491
-491
-491
-493
-493
-493
-491
-487
-485
-481
-479
-473
-469
-457
-449
-441
-431
-423
-403
-391
-381
-369
-359
-337
-327
-317
-307
-297
-289
-281
-265
-259
-253
-247
-243
-237
-235
-233
-231
-231
-231
-231
-235
-237
-239
-241
-245
-251
-255
-259
-263
-267
-277
-281
-285
-289
-293
-295
-299
-305
-307
-309
-309
-311
-311
-309
-309
-305
-303
-299
-297
-287
-281
-277
-271
-265
-253
-245
-239
-233
-227
-221
-215
-201
-195
-189
-181
-175
-159
-151
-143
-135
-127
-109
-95
-83
-87
-91
-71
-53
-15
-25
-37
-3
28
122
186
248
240
234
346
460
734
892
1050
1188
1328
1550
1836
2122
2082
2042
1906
1844
1784
1442
1102
636
172
-725
-923
-1123
-1195
-1267
-1099
-945
-793
-651
-509
-483
-459
-361
-369
-379
-349
-321
-349
-347
-345
-339
-335
-333
-331
-329
-329
-329
-327
-327
-327
-327
-327
-327
-327
-329
-329
-329
-329
-331
-331
-333
-335
-335
-337
-337
-339
-343
-343
-345
-345
-345
-345
-343
-343
-341
-339
-335
-331
-321
-313
-307
-297
-289
-267
-253
-241
-227
-213
-197
-183
-149
-143
-139
-119
-101
-63
-43
-23
-3
16
36
56
94
114
134
154
172
210
228
248
266
286
324
344
366
380
396
410
424
450
462
474
484
494
510
516
522
526
532
534
538
542
542
542
540
540
534
530
528
522
518
506
498
492
484
476
466
456
434
420
408
394
380
346
348
352
332
312
290
268
222
198
172
146
118
72
38
4
-19
-45
-95
-117
-141
-161
-183
-189
-195
-219
-229
-239
-245
-253
-263
-265
-269
-269
-271
-271
-271
-269
-267
-267
-265
-263
-261
-259
-259
-257
-257
-257
-257
-259
-259
-259
-259
-261
-261
-261
-261
-261
-261
-257
-253
-251
-247
-243
-237
-233
-221
-213
-207
-199
-191
-175
-167
-159
-151
-145
-139
-133
-125
-121
-117
-115
-115
-115
-115
-117
-119
-123
-131
-135
-139
-143
-147
-151
-155
-163
-167
-171
-173
-177
-181
-181
-183
-183
-183
-183
-185
-185
-183
-183
-183
-183
-181
-181
-181
-179
-179
-179
-177
-177
-175
-175
-173
-171
-167
-163
-161
-157
-153
-145
-139
-133
-127
-121
-115
-109
-97
-89
-83
-77
-73
-63
-59
-55
-53
-51
-49
-49
-49
-51
-53
-57
-61
-69
-73
-79
-85
-91
-103
-107
-113
-117
-123
-127
-133
-139
-141
-143
-143
-145
-143
-139
-137
-133
-129
-119
-111
-105
-95
-87
-77
-69
-49
-39
-29
-19
-9
10
20
28
38
46
54
62
76
82
86
92
96
102
104
106
108
108
108
108
108
108
106
106
104
100
100
98
98
96
96
96
96
98
100
102
104
112
118
122
128
134
148
156
164
172
180
190
198
220
228
234
242
254
258
264
268
272
276
278
280
280
280
278
276
272
268
264
260
256
246
238
232
224
218
206
188
180
170
160
150
128
118
106
96
84
62
52
40
32
22
14
4
-7
-11
-15
-15
-17
-19
-13
-9
2
12
24
34
8
34
58
50
42
136
198
260
254
248
444
576
708
864
1022
1160
1298
1810
2016
2222
2146
2072
1918
1824
1730
1386
1044
682
320
-363
-527
-691
-779
-869
-863
-729
-595
-599
-603
-607
-611
-595
-577
-561
-545
-529
-519
-513
-507
-501
-495
-483
-477
-473
-467
-463
-459
-455
-445
-439
-433
-425
-419
-405
-397
-389
-379
-371
-361
-351
-329
-317
-307
-295
-283
-259
-247
-235
-223
-211
-187
-175
-165
-153
-143
-131
-121
-101
-91
-83
-73
-65
-49
-41
-33
-25
-17
-9
-1
12
20
28
36
44
62
72
80
90
98
118
130
140
152
164
178
190
216
230
246
246
246
280
298
316
336
358
380
402
452
478
506
524
544
612
646
682
704
726
750
764
778
788
798
804
810
812
808
804
794
786
826
804
784
756
730
720
710
630
586
544
498
452
358
310
264
218
172
128
82
0
-35
-73
-107
-141
-197
-199
-201
-213
-225
-253
-263
-273
-279
-287
-291
-295
-301
-301
-303
-303
-303
-299
-297
-295
-291
-289
-285
-283
-279
-277
-275
-273
-271
-267
-265
-265
-265
-265
-265
-265
-265
-265
-265
-265
-267
-267
-267
-269
-269
-271
-273
-275
-277
-279
-281
-283
-287
-291
-295
-299
-301
-305
-315
-319
-323
-327
-331
-341
-345
-351
-355
-361
-365
-369
-377
-381
-385
-387
-391
-397
-399
-401
-403
-405
-405
-405
-407
-405
-405
-403
-403
-401
-399
-399
-397
-397
-395
-393
-393
-393
-393
-393
-393
-395
-395
-397
-399
-403
-407
-409
-413
-415
-417
-419
-421
-425
-425
-427
-425
-425
-421
-417
-413
-407
-403
-397
-391
-375
-365
-357
-347
-339
-319
-309
-301
-293
-285
-269
-261
-255
-249
-245
-241
-237
-233
-231
-229
-229
-231
-233
-235
-237
-239
-243
-245
-249
-255
-259
-263
-265
-269
-277
-279
-283
-287
-291
-297
-301
-305
-309
-315
-319
-323
-333
-339
-345
-349
-355
-365
-369
-373
-375
-379
-381
-383
-381
-377
-375
-369
-365
-347
-333
-321
-335
-349
-309
-283
-259
-247
-237
-199
-161
-79
-37
2
42
82
160
196
230
262
296
324
354
372
394
416
436
456
474
484
496
504
514
528
532
538
540
542
542
542
540
536
532
526
522
510
504
498
490
482
474
466
450
442
434
426
420
406
400
394
388
384
380
376
370
368
366
364
364
364
364
366
366
368
370
370
372
374
376
376
376
378
378
380
380
380
382
384
386
388
392
394
396
408
418
430
440
452
432
452
474
464
454
536
592
648
652
658
740
824
1046
1168
1292
1414
1538
1688
1932
2176
2236
2296
2238
2182
2094
1732
1370
926
484
-327
-513
-699
-773
-847
-727
-559
-393
-379
-365
-329
-293
-203
-163
-125
-99
-73
-81
-57
-35
-15
4
20
36
60
70
78
88
96
110
114
118
120
122
122
120
118
116
112
108
102
90
84
78
72
64
50
44
38
32
26
22
16
10
8
4
4
2
0
2
2
6
8
12
14
24
30
36
44
50
66
76
86
98
108
132
146
158
174
188
204
218
222
240
258
276
296
336
356
378
400
422
446
470
516
540
564
588
612
656
670
684
698
712
732
740
748
750
754
754
754
744
736
728
716
706
676
682
688
666
644
618
594
544
518
492
466
442
394
372
350
330
310
282
266
252
238
226
216
206
186
178
168
160
152
140
134
126
120
114
108
100
88
80
72
64
56
38
30
20
10
0
-21
-31
-43
-53
-63
-73
-83
-101
-109
-117
-123
-131
-139
-141
-145
-147
-149
-147
-147
-143
-139
-137
-131
-127
-117
-111
-107
-101
-95
-89
-85
-75
-69
-65
-61
-57
-49
-45
-43
-39
-37
-33
-31
-29
-27
-25
-23
-21
-19
-17
-17
-15
-13
-13
-11
-11
-11
-11
-11
-11
-13
-15
-17
-19
-21
-27
-31
-35
-39
-45
-57
-63
-69
-75
-81
-87
-95
-109
-115
-121
-125
-131
-141
-145
-149
-151
-153
-155
-157
-157
-155
-153
-151
-149
-141
-135
-131
-125
-121
-111
-105
-99
-93
-89
-85
-81
-75
-73
-71
-71
-71
-75
-77
-81
-85
-89
-95
-101
-117
-125
-133
-141
-151
-171
-179
-189
-199
-209
-225
-231
-239
-245
-253
-257
-263
-269
-269
-271
-271
-273
-271
-267
-265
-261
-259
-255
-251
-243
-239
-235
-229
-225
-217
-213
-209
-205
-201
-197
-195
-189
-185
-183
-179
-177
-173
-171
-169
-167
-167
-165
-165
-165
-165
-165
-165
-167
-173
-175
-179
-183
-187
-197
-201
-207
-213
-219
-225
-231
-243
-249
-255
-259
-265
-273
-277
-281
-283
-285
-287
-287
-289
-287
-287
-285
-285
-283
-279
-277
-275
-273
-267
-265
-263
-259
-257
-253
-249
-243
-239
-235
-229
-225
-215
-209
-205
-199
-195
-183
-177
-173
-167
-161
-157
-153
-147
-145
-143
-143
-143
-145
-147
-151
-155
-159
-163
-167
-177
-179
-183
-189
-197
-203
-201
-199
-195
-193
-225
-211
-197
-233
-271
-231
-193
-71
-71
-73
30
132
394
550
708
852
998
1122
1248
1886
1876
1866
1826
1788
1730
1388
1046
626
206
-121
-451
-879
-933
-989
-927
-865
-635
-629
-623
-589
-557
-477
-443
-409
-409
-411
-399
-387
-357
-345
-333
-323
-315
-303
-297
-291
-285
-281
-277
-273
-265
-261
-259
-255
-253
-247
-243
-239
-233
-229
-217
-211
-205
-197
-191
-183
-175
-157
-147
-139
-127
-117
-95
-83
-71
-59
-47
-35
-23
0
14
26
38
50
72
84
94
106
116
134
144
152
160
168
176
182
196
202
208
218
230
236
242
248
254
260
268
282
290
298
306
316
334
344
354
364
376
398
408
420
430
442
452
464
484
494
504
512
522
538
544
550
554
558
560
564
564
560
558
552
548
530
518
508
494
480
464
448
456
432
410
384
360
308
282
256
230
204
152
128
104
82
60
40
20
-15
-27
-41
-55
-69
-95
-105
-117
-127
-137
-145
-153
-169
-175
-181
-185
-191
-201
-203
-207
-209
-211
-215
-215
-215
-213
-213
-211
-209
-203
-197
-193
-187
-183
-171
-163
-157
-149
-141
-133
-125
-109
-101
-95
-87
-81
-69
-65
-61
-59
-57
-57
-57
-59
-63
-67
-71
-77
-93
-101
-109
-119
-129
-149
-159
-171
-181
-191
-201
-211
-231
-239
-247
-255
-263
-275
-279
-285
-289
-295
-301
-303
-305
-307
-309
-309
-309
-309
-307
-307
-305
-303
-297
-293
-291
-287
-283
-277
-273
-263
-259
-255
-249
-245
-235
-231
-227
-223
-221
-219
-217
-215
-215
-217
-217
-219
-225
-227
-231
-235
-241
-251
-257
-263
-269
-277
-285
-293
-307
-315
-323
-329
-337
-351
-357
-363
-367
-373
-375
-379
-381
-381
-381
-377
-375
-363
-355
-347
-337
-327
-301
-287
-273
-257
-243
-227
-211
-179
-163
-147
-133
-119
-95
-85
-75
-67
-59
-53
-49
-45
-45
-45
-47
-51
-61
-69
-77
-85
-95
-115
-125
-137
-147
-159
-169
-181
-203
-211
-221
-229
-237
-249
-253
-259
-261
-263
-263
-265
-263
-259
-257
-253
-249
-237
-231
-225
-217
-211
-197
-189
-181
-173
-165
-157
-149
-131
-121
-113
-103
-95
-77
-67
-59
-51
-43
-35
-27
-13
-7
-3
0
4
8
10
10
8
6
2
-1
-11
-17
-25
-33
-41
-57
-65
-75
-83
-93
-109
-115
-123
-127
-133
-135
-139
-139
-139
-139
-133
-127
-115
-101
-89
-99
-111
-85
-61
-75
-27
18
14
10
166
266
366
484
602
858
984
1112
1280
1450
1568
1686
1826
1826
1826
1742
1658
1492
1130
768
594
420
94
-233
-559
-587
-615
-411
-207
-271
-261
-253
-245
-239
-195
-169
-145
-141
-139
-129
-121
-103
-93
-85
-77
-71
-61
-55
-51
-47
-43
-39
-35
-29
-25
-21
-17
-15
-7
-3
0
4
8
16
22
26
32
36
42
48
64
72
80
90
100
124
138
150
166
180
176
172
210
230
250
274
298
350
374
400
426
452
476
500
522
536
550
560
572
588
592
598
602
606
608
608
608
606
606
606
606
606
608
610
614
618
630
638
648
660
672
686
700
732
730
730
752
774
824
850
876
902
928
980
1004
1028
1040
1052
1064
1078
1100
1106
1112
1114
1118
1118
1114
1110
1102
1094
1084
1074
1050
1036
1022
1006
990
958
940
924
908
892
860
844
828
812
798
784
770
744
732
720
708
696
676
666
656
646
638
630
622
606
598
592
586
580
570
566
562
558
554
548
544
542
540
540
538
538
538
540
542
544
546
550
554
558
560
564
568
572
578
580
582
584
586
586
584
584
580
578
572
568
554
546
538
528
520
500
488
478
466
456
434
424
414
404
396
388
382
368
362
358
354
352
348
346
346
346
348
348
350
356
360
364
368
374
386
392
398
404
412
424
430
438
444
450
454
460
468
470
474
474
474
474
470
468
462
458
450
444
428
418
410
400
390
368
356
346
336
326
304
294
286
276
268
260
252
238
232
226
220
214
204
200
194
190
184
180
174
164
160
154
150
144
134
130
126
122
118
110
108
106
106
104
104
104
104
108
110
114
116
124
128
132
138
142
148
152
162
166
170
174
178
182
184
186
188
188
188
188
186
184
182
182
180
174
174
172
170
168
168
168
168
170
170
174
176
184
190
196
204
210
224
232
240
248
258
268
278
296
304
314
322
330
344
350
356
360
364
370
370
372
372
372
368
366
360
354
348
340
334
318
308
300
290
280
268
258
234
222
210
198
184
156
142
128
114
100
74
62
48
38
26
18
8
-13
-17
-23
-21
-21
-15
-35
-57
-41
-25
-59
-93
-5
60
126
124
120
328
468
608
776
944
1242
1502
1764
2006
2250
2184
2120
1980
1890
1800
1430
1060
-109
-431
-561
-693
-753
-813
-767
-643
-521
-505
-491
-427
-387
-349
-311
-275
-245
-215
-237
-223
-209
-195
-181
-155
-145
-135
-125
-117
-95
-83
-73
-61
-49
-35
-23
4
20
34
50
66
98
106
114
134
154
178
200
232
246
262
276
292
320
332
344
356
368
388
396
404
410
418
424
432
442
446
450
452
456
460
462
464
466
470
472
474
480
484
488
492
498
510
518
526
536
546
570
582
596
612
628
626
626
666
686
708
730
752
800
822
846
870
894
916
938
968
982
998
1008
1020
1038
1042
1048
1050
1052
1048
1042
1038
1030
1022
1010
1000
972
956
940
940
942
900
878
856
832
808
784
760
712
686
662
636
610
562
536
512
488
466
442
420
378
358
340
326
312
286
274
262
252
244
230
224
220
216
214
214
216
220
224
228
238
244
250
256
262
268
274
288
294
300
304
310
318
320
324
324
326
326
324
322
318
316
310
306
294
286
280
272
266
250
242
234
226
218
204
192
186
180
174
168
160
158
154
152
150
148
148
148
150
150
152
154
160
166
170
174
178
190
196
202
208
216
222
234
238
242
246
250
256
258
260
260
260
258
256
254
250
248
244
242
234
228
224
218
214
206
202
196
192
186
182
176
168
164
160
158
154
150
150
148
148
148
150
150
154
158
160
166
170
180
186
190
198
204
214
220
228
234
240
246
252
264
270
276
280
286
294
298
302
304
306
308
310
314
314
314
312
312
310
306
304
300
298
290
286
282
276
272
268
264
254
248
244
238
234
224
220
216
208
204
200
192
188
184
180
176
168
166
162
160
156
154
154
154
156
156
158
160
168
174
180
188
194
210
218
226
236
246
254
264
284
292
300
306
314
326
328
332
332
334
332
328
324
318
312
302
294
274
262
250
236
224
200
186
172
160
146
134
120
96
86
76
66
56
42
36
30
26
22
20
18
18
22
24
28
30
44
50
56
70
82
70
96
120
110
98
148
196
142
230
318
440
562
868
1038
1210
1356
1502
1614
1728
2406
2320
2234
2136
2040
1822
1436
1052
582
112
-539
-739
-941
-971
-1001
-903
-807
-523
-505
-487
-445
-405
-313
-277
-243
-223
-205
-215
-227
-189
-171
-155
-133
-113
-87
-75
-63
-49
-35
-7
4
16
30
42
54
64
86
96
106
116
124
138
144
150
156
160
164
166
172
174
174
176
176
178
180
180
182
182
184
188
190
194
196
202
206
216
222
230
238
248
268
278
290
302
316
330
344
374
376
378
394
412
448
468
488
508
530
554
578
628
654
680
698
718
790
826
864
898
932
960
984
1010
1032
1056
1064
1074
1100
1108
1116
1120
1126
1130
1126
1124
1118
1114
1102
1092
1064
1074
1084
1062
1040
990
972
954
914
876
800
762
726
694
662
654
648
600
578
558
538
520
486
468
452
436
420
404
390
362
348
334
322
310
284
272
262
250
240
218
210
202
194
186
180
172
160
156
152
148
144
140
140
138
138
138
138
138
140
142
144
146
148
152
154
156
158
160
162
162
162
162
160
158
156
150
146
142
136
130
116
110
102
94
84
76
66
48
40
30
20
10
-7
-17
-27
-35
-45
-55
-65
-83
-93
-105
-115
-125
-147
-159
-171
-181
-193
-219
-231
-243
-255
-269
-281
-293
-319
-331
-343
-353
-365
-387
-397
-409
-419
-429
-437
-447
-465
-473
-481
-489
-497
-513
-519
-527
-533
-539
-551
-557
-563
-567
-571
-575
-579
-585
-587
-589
-589
-591
-591
-589
-589
-587
-585
-581
-577
-569
-563
-559
-553
-547
-535
-529
-523
-515
-509
-497
-491
-485
-479
-475
-471
-467
-459
-457
-455
-453
-451
-451
-451
-451
-451
-453
-455
-457
-463
-465
-469
-473
-477
-485
-489
-493
-497
-503
-513
-517
-523
-527
-533
-537
-543
-549
-551
-553
-555
-557
-555
-553
-551
-547
-543
-537
-531
-515
-505
-495
-483
-471
-445
-429
-415
-399
-385
-369
-353
-319
-303
-287
-271
-257
-229
-215
-203
-191
-181
-165
-157
-151
-147
-145
-143
-141
-143
-145
-149
-153
-157
-169
-175
-183
-189
-197
-205
-213
-227
-233
-241
-247
-255
-267
-273
-279
-283
-289
-297
-299
-303
-305
-309
-309
-311
-313
-313
-313
-311
-311
-305
-299
-295
-289
-283
-277
-271
-253
-239
-227
-215
-205
-207
-187
-167
-169
-173
-107
-59
-11
-35
-59
24
106
340
488
636
802
970
1302
1546
1792
1982
2174
2252
2332
1924
1844
1766
1462
1158
440
98
-245
-415
-585
-775
-773
-773
-639
-507
-481
-457
-463
-427
-393
-357
-321
-259
-251
-243
-221
-199
-177
-155
-115
-95
-77
-61
-47
-17
-3
8
20
30
40
48
64
70
74
78
82
86
86
86
84
82
78
74
70
66
62
58
54
46
44
40
40
38
38
40
40
44
46
52
56
70
78
86
96
104
124
134
144
156
168
192
204
214
226
240
254
268
296
310
324
338
354
386
402
420
424
430
448
468
506
526
546
566
586
628
644
660
674
688
712
722
732
740
748
752
758
762
762
762
758
754
740
730
722
710
698
684
670
636
636
638
616
596
550
526
502
478
454
406
382
358
334
312
290
268
226
210
192
180
166
138
128
116
106
94
86
78
64
58
52
48
42
36
34
30
28
24
22
18
14
10
6
4
0
-9
-15
-21
-27
-33
-49
-57
-65
-73
-81
-91
-101
-119
-127
-137
-145
-153
-169
-175
-183
-189
-197
-201
-207
-219
-223
-227
-231
-235
-243
-247
-251
-255
-259
-267
-271
-275
-277
-281
-285
-289
-295
-297
-299
-301
-303
-307
-307
-309
-309
-311
-311
-313
-313
-313
-315
-317
-319
-323
-325
-327
-329
-333
-339
-343
-347
-349
-353
-357
-361
-367
-371
-375
-377
-379
-383
-383
-385
-385
-385
-385
-385
-381
-377
-375
-371
-367
-357
-351
-345
-337
-331
-315
-307
-299
-289
-281
-271
-261
-243
-235
-227
-219
-213
-201
-197
-193
-189
-187
-185
-185
-187
-189
-191
-195
-199
-207
-211
-217
-221
-227
-231
-235
-243
-245
-247
-247
-249
-251
-249
-249
-247
-247
-245
-243
-243
-241
-241
-241
-241
-243
-245
-247
-249
-253
-261
-265
-271
-275
-281
-285
-289
-297
-299
-301
-301
-303
-301
-297
-293
-287
-281
-267
-257
-247
-235
-223
-209
-197
-171
-157
-143
-129
-117
-93
-81
-71
-61
-53
-47
-41
-33
-31
-29
-29
-31
-37
-41
-47
-53
-61
-77
-85
-95
-105
-115
-123
-133
-151
-159
-169
-175
-183
-195
-199
-205
-207
-211
-213
-215
-215
-213
-211
-209
-207
-197
-191
-185
-177
-171
-155
-145
-135
-123
-111
-97
-85
-61
-45
-31
-29
-29
8
32
54
76
96
94
90
152
196
238
296
356
348
454
560
688
818
956
1096
1400
1510
1620
1814
2008
2342
2170
1998
1838
1680
1328
950
574
240
-91
-343
-597
-887
-935
-985
-833
-681
-713
-695
-679
-641
-605
-561
-517
-427
-407
-387
-359
-333
-281
-259
-237
-217
-199
-193
-181
-171
-161
-153
-145
-139
-129
-125
-123
-121
-119
-117
-117
-117
-117
-117
-117
-119
-121
-123
-125
-125
-127
-129
-129
-129
-129
-129
-127
-123
-121
-117
-115
-111
-107
-97
-89
-83
-75
-69
-51
-41
-31
-21
-11
0
10
34
48
60
74
86
116
132
146
162
178
182
200
216
234
254
274
294
336
356
378
398
420
460
478
498
512
526
538
552
572
580
588
594
600
604
602
602
598
594
586
580
562
548
536
520
506
472
472
474
452
430
384
358
332
306
280
260
242
184
152
118
84
50
-19
-53
-89
-105
-123
-147
-173
-215
-221
-229
-241
-255
-271
-277
-283
-287
-291
-291
-289
-289
-285
-281
-275
-271
-259
-253
-247
-239
-233
-221
-215
-211
-207
-203
-199
-197
-191
-189
-187
-185
-185
-185
-183
-183
-181
-181
-177
-175
-173
-169
-167
-163
-159
-149
-141
-135
-127
-121
-103
-93
-85
-73
-63
-51
-41
-17
-5
6
20
32
58
72
84
98
110
134
146
158
170
180
190
198
214
220
226
230
236
244
246
248
248
248
246
246
242
238
236
232
228
218
214
210
204
198
192
186
170
164
156
148
138
122
112
102
94
84
66
58
48
40
30
24
16
4
0
-3
-5
-7
-9
-7
-5
-1
0
6
12
24
32
40
48
56
72
80
86
94
100
110
114
118
120
122
122
122
118
114
108
102
96
78
68
58
48
36
24
12
-13
-25
-39
-51
-63
-87
-97
-107
-115
-125
-141
-147
-153
-157
-161
-163
-167
-167
-167
-167
-165
-163
-155
-149
-145
-139
-133
-125
-119
-101
-91
-81
-69
-57
-31
-17
-3
12
26
56
72
88
104
120
134
148
176
188
200
208
216
230
234
240
240
242
240
240
234
228
222
214
208
190
180
170
160
148
136
124
102
92
80
70
58
38
30
22
16
8
-1
-5
-9
-9
-9
-9
-9
-1
6
14
26
36
16
36
54
46
38
76
112
210
224
240
304
368
536
642
748
866
984
1236
1354
1474
1496
1518
1762
2008
2050
1982
1916
1752
1590
1240
870
502
92
-317
-569
-821
-1099
-1087
-1075
-841
-607
-597
-487
-377
-313
-249
-329
-293
-257
-259
-263
-241
-221
-189
-179
-171
-159
-147
-125
-113
-101
-89
-79
-69
-59
-37
-25
-15
-5
4
22
32
40
50
58
72
80
86
92
98
104
108
116
120
124
128
132
138
142
144
148
150
154
156
160
164
166
168
170
174
178
180
182
184
188
192
202
208
218
224
242
256
270
260
250
286
310
334
328
324
368
412
508
558
608
654
702
788
824
862
890
920
918
916
940
952
966
974
982
988
986
984
980
978
964
952
942
926
910
918
928
882
856
830
810
792
720
682
644
608
572
536
500
430
396
362
328
296
228
196
164
132
100
40
26
12
-11
-35
-57
-79
-117
-129
-141
-153
-167
-191
-201
-211
-219
-227
-233
-239
-247
-249
-253
-253
-255
-253
-251
-251
-249
-247
-241
-237
-233
-229
-227
-223
-219
-213
-209
-207
-205
-203
-201
-199
-199
-199
-199
-199
-201
-203
-205
-207
-207
-209
-211
-211
-211
-209
-209
-207
-205
-197
-191
-187
-181
-175
-157
-147
-139
-129
-119
-97
-85
-75
-63
-53
-41
-31
-13
-3
4
12
20
32
38
44
48
52
56
58
62
64
64
66
66
66
66
64
64
62
58
56
52
48
44
40
36
24
18
10
4
-3
-19
-27
-37
-47
-57
-67
-77
-95
-103
-113
-121
-131
-145
-151
-157
-161
-165
-169
-169
-169
-167
-165
-161
-157
-143
-135
-127
-117
-109
-87
-75
-65
-53
-43
-31
-21
-1
8
16
24
30
44
50
54
58
60
66
68
68
68
68
68
68
66
66
64
62
60
58
56
52
50
48
46
44
38
36
32
30
28
24
22
20
20
18
20
20
24
28
32
40
46
64
74
84
98
112
140
158
174
192
208
224
240
272
286
302
314
328
348
354
362
366
370
370
370
364
356
350
340
332
308
294
282
266
252
222
210
196
182
166
154
140
118
110
100
92
84
76
76
74
76
78
84
88
104
116
126
114
102
142
168
194
218
242
262
300
338
388
438
500
562
548
636
724
850
978
1268
1444
1620
1784
1950
2178
2406
2882
2868
2854
2672
2492
1910
1478
1048
612
178
-431
-639
-847
-915
-983
-937
-891
-679
-697
-717
-753
-789
-835
-835
-835
-839
-845
-859
-875
-901
-911
-923
-933
-943
-961
-967
-975
-979
-985
-985
-987
-985
-979
-975
-967
-961
-943
-931
-919
-907
-895
-871
-857
-845
-833
-821
-809
-799
-779
-769
-761
-753
-747
-735
-731
-727
-723
-719
-715
-711
-707
-703
-701
-697
-695
-689
-685
-681
-675
-671
-659
-651
-643
-633
-625
-613
-603
-579
-563
-549
-533
-517
-523
-503
-483
-459
-437
-413
-389
-335
-313
-293
-257
-223
-155
-135
-115
-89
-63
-15
6
26
34
42
54
66
84
90
96
100
102
98
94
90
82
74
64
52
22
30
36
14
-7
-57
-69
-83
-117
-153
-227
-265
-305
-343
-383
-421
-459
-531
-565
-599
-629
-661
-715
-727
-739
-761
-785
-799
-813
-841
-851
-861
-869
-877
-889
-893
-897
-897
-899
-897
-897
-891
-887
-883
-877
-873
-863
-857
-853
-847
-841
-831
-827
-823
-817
-813
-809
-807
-799
-795
-793
-791
-789
-785
-783
-781
-779
-779
-779
-779
-779
-779
-781
-783
-785
-791
-793
-797
-799
-803
-811
-813
-817
-821
-825
-827
-829
-833
-833
-835
-835
-835
-833
-831
-829
-825
-823
-819
-815
-807
-803
-799
-793
-789
-779
-775
-771
-765
-761
-751
-745
-741
-735
-729
-723
-717
-705
-699
-693
-685
-679
-667
-659
-653
-645
-639
-633
-627
-615
-609
-603
-597
-593
-583
-579
-575
-571
-567
-557
-553
-549
-545
-541
-535
-531
-521
-515
-509
-503
-497
-483
-475
-469
-461
-453
-445
-437
-421
-411
-403
-395
-387
-369
-361
-353
-345
-339
-331
-325
-311
-305
-301
-295
-291
-283
-279
-277
-273
-271
-265
-261
-259
-255
-253
-249
-245
-237
-231
-225
-219
-213
-199
-191
-185
-177
-171
-163
-155
-141
-133
-125
-119
-113
-101
-95
-89
-83
-77
-65
-57
-51
-43
-37
-29
-21
-1
10
20
32
44
72
88
104
106
106
126
144
186
208
228
250
274
320
342
366
388
412
458
480
502
522
542
558
576
606
620
634
644
656
676
684
694
700
708
714
720
732
738
744
750
756
772
778
786
796
806
838
852
868
862
856
882
908
890
936
982
1046
1110
1108
1208
1308
1440
1574
1734
1894
2190
2400
2612
2862
3112
3084
3036
2990
2944
2900
2520
2142
1528
1086
644
508
372
448
580
714
758
802
840
876
912
944
978
998
1020
1004
1018
1032
1044
1056
1074
1080
1088
1092
1096
1100
1106
1112
1114
1118
1120
1122
1128
1130
1132
1136
1140
1148
1154
1160
1168
1176
1186
1196
1218
1230
1244
1258
1272
1302
1318
1334
1350
1366
1380
1396
1426
1438
1452
1464
1476
1496
1504
1512
1518
1524
1534
1536
1540
1542
1544
1546
1548
1550
1552
1554
1556
1558
1566
1570
1574
1580
1586
1594
1602
1620
1630
1640
1652
1664
1690
1704
1718
1732
1746
1774
1788
1804
1818
1832
1844
1858
1884
1894
1906
1914
1924
1940
1946
1954
1958
1962
1964
1968
1972
1972
1972
1970
1968
1962
1958
1954
1948
1944
1938
1932
1916
1908
1900
1890
1880
1860
1846
1834
1820
1808
1780
1764
1748
1732
1716
1710
1704
1664
1644
1624
1604
1586
1552
1532
1512
1494
1478
1462
1446
1416
1400
1384
1368
1354
1322
1306
1290
1274
1258
1224
1218
1212
1194
1178
1160
1142
1106
1086
1068
1048
1030
992
972
952
930
910
888
868
826
804
782
760
738
696
674
652
630
610
568
548
528
508
490
470
452
414
394
376
360
344
316
302
290
278
268
256
246
228
220
208
202
192
190
186
186
184
184
186
186
190
194
200
204
214
220
228
234
242
256
262
270
276
282
286
290
294
294
294
290
286
272
262
252
238
226
234
244
204
180
154
128
100
58
26
-5
-39
-75
-145
-181
-217
-251
-287
-319
-353
-381
-405
-429
-449
-471
-487
-499
-511
-519
-527
-533
-541
-547
-549
-551
-549
-547
-541
-537
-533
-527
-523
-513
-507
-503
-499
-495
-493
-491
-487
-487
-487
-487
-489
-495
-499
-503
-507
-511
-515
-521
-529
-533
-539
-541
-545
-551
-553
-555
-555
-557
-555
-553
-553
-551
-551
-549
-547
-541
-537
-535
-533
-531
-527
-525
-523
-521
-519
-517
-517
-517
-515
-515
-515
-515
-515
-515
-515
-515
-515
-513
-511
-509
-505
-503
-497
-493
-481
-473
-465
-455
-447
-423
-411
-399
-383
-369
-353
-337
-303
-299
-295
-275
-255
-215
-193
-171
-145
-121
-113
-105
-11
-9
-7
28
64
164
226
288
288
288
496
624
752
892
1032
1164
1298
1762
1882
2004
2018
2032
1800
1662
1526
1124
722
294
-133
-597
-713
-829
-801
-775
-415
-411
-409
-377
-347
-255
-211
-169
-137
-105
-139
-175
-155
-149
-143
-143
-143
-153
-161
-171
-179
-187
-199
-211
-237
-251
-265
-279
-295
-325
-339
-353
-367
-381
-405
-415
-425
-433
-443
-449
-457
-467
-471
-475
-477
-479
-479
-477
-475
-471
-469
-465
-461
-453
-447
-441
-435
-431
-421
-415
-411
-405
-401
-393
-389
-387
-385
-383
-381
-381
-379
-379
-379
-379
-379
-379
-379
-379
-377
-377
-375
-373
-367
-361
-357
-351
-345
-329
-319
-311
-299
-289
-277
-267
-241
-227
-213
-199
-185
-157
-143
-129
-115
-101
-75
-61
-49
-35
-23
-9
2
26
38
48
60
72
94
106
116
126
136
146
156
172
180
188
194
200
210
216
218
220
220
220
220
218
218
216
214
210
210
210
214
216
220
224
228
234
248
256
266
276
286
306
318
330
342
354
382
396
410
424
440
456
472
504
506
508
526
544
584
606
630
654
680
692
706
768
802
836
872
910
986
1024
1064
1102
1140
1212
1244
1278
1282
1286
1308
1330
1348
1360
1374
1382
1390
1400
1404
1408
1408
1408
1406
1404
1394
1386
1380
1370
1362
1340
1328
1316
1302
1288
1272
1258
1228
1212
1196
1180
1166
1136
1120
1106
1092
1080
1058
1048
1038
1030
1024
1018
1012
1006
1004
1002
1002
1004
1006
1008
1012
1014
1016
1018
1020
1022
1022
1022
1018
1016
1004
994
984
970
958
988
968
948
924
900
872
846
786
752
718
684
652
620
612
606
594
582
572
562
560
536
512
526
542
486
526
568
554
540
714
816
918
1030
1142
1256
1372
1588
1736
1884
1946
2010
2088
2078
2068
2100
2132
2114
2096
2088
2088
2088
2082
2078
2066
2054
2044
2034
2024
1996
2000
2004
1984
1964
1940
1918
1868
1864
1860
1826
1794
1716
1670
1626
1594
1562
1496
1432
1296
1230
1166
1106
1046
940
892
844
798
754
706
660
554
492
432
364
298
162
96
30
-29
-91
-143
-185
-229
-265
-303
-333
-363
-367
-373
-379
-389
-401
-411
-413
-415
-407
-401
-417
-433
-481
-449
-417
-369
-323
-369
-267
-165
-47
70
320
434
548
628
710
888
1068
1006
888
770
642
514
-65
-431
-799
-1163
-1527
-1733
-1939
-2151
-2131
-2111
-1961
-1811
-1821
-1815
-1809
-1793
-1779
-1731
-1707
-1683
-1673
-1663
-1649
-1637
-1611
-1597
-1585
-1573
-1561
-1541
-1531
-1523
-1513
-1505
-1497
-1491
-1479
-1475
-1471
-1469
-1467
-1467
-1469
-1471
-1475
-1481
-1495
-1503
-1513
-1523
-1535
-1547
-1559
-1583
-1595
-1609
-1621
-1635
-1659
-1669
-1681
-1691
-1703
-1711
-1721
-1737
-1743
-1751
-1755
-1761
-1767
-1767
-1769
-1767
-1765
-1761
-1757
-1747
-1737
-1729
-1717
-1705
-1725
-1705
-1685
-1661
-1639
-1637
-1599
-1563
-1521
-1479
-1433
-1387
-1293
-1245
-1197
-1151
-1107
-1019
-977
-937
-899
-863
-829
-795
-733
-705
-677
-665
-655
-609
-589
-571
-559
-549
-527
-517
-509
-501
-495
-489
-485
-483
-483
-483
-485
-489
-501
-507
-513
-521
-531
-539
-549
-567
-577
-587
-595
-603
-619
-623
-629
-633
-637
-639
-637
-635
-629
-625
-617
-611
-593
-581
-569
-555
-543
-513
-497
-483
-467
-453
-437
-421
-393
-379
-365
-351
-339
-317
-305
-295
-285
-275
-259
-251
-243
-235
-227
-219
-213
-199
-193
-187
-181
-175
-161
-155
-149
-143
-137
-131
-127
-115
-109
-103
-95
-89
-77
-69
-61
-51
-43
-33
-25
-3
8
20
34
48
74
90
104
118
132
162
176
188
200
222
232
250
258
266
272
278
288
290
294
296
300
302
304
308
310
314
318
322
332
338
344
352
360
380
390
402
414
428
442
456
486
502
518
534
550
570
588
606
624
642
662
684
718
732
748
764
780
808
822
836
850
864
888
900
912
922
934
944
954
972
980
988
994
1000
1012
1016
1022
1026
1032
1034
1038
1044
1046
1048
1048
1050
1052
1052
1052
1050
1050
1048
1044
1042
1038
1034
1028
1022
1008
998
990
978
968
942
926
912
896
880
878
878
838
816
796
772
750
706
684
664
648
634
620
606
580
570
560
552
544
530
524
520
516
512
502
498
494
488
484
478
472
458
450
442
432
424
402
390
380
368
358
346
336
314
304
296
288
280
268
262
258
254
252
250
250
250
252
254
256
260
270
276
282
288
296
314
322
332
344
356
368
380
372
390
408
434
460
464
506
550
550
550
682
766
850
956
1064
1194
1326
1632
1796
1960
2128
2296
2726
2888
3052
2936
2822
2692
2562
2336
1884
1434
974
516
-187
-289
-391
-395
-401
-207
-85
36
144
250
286
322
314
352
392
414
438
416
432
450
460
472
486
500
524
534
546
560
574
604
618
634
650
666
682
698
728
744
760
774
788
816
828
840
850
862
882
890
900
906
914
920
928
940
946
952
958
964
974
978
984
988
994
998
1002
1010
1012
1016
1018
1022
1026
1028
1030
1030
1032
1036
1038
1040
1042
1046
1050
1056
1070
1078
1086
1096
1108
1136
1128
1120
1140
1162
1186
1212
1236
1272
1308
1346
1384
1466
1506
1548
1588
1630
1704
1712
1720
1726
1734
1748
1762
1780
1782
1786
1784
1782
1772
1762
1754
1740
1726
1736
1746
1700
1672
1646
1628
1612
1544
1508
1472
1434
1398
1322
1282
1244
1208
1172
1136
1102
1038
1026
1014
990
966
946
934
922
912
904
898
894
890
890
892
896
900
914
922
932
942
954
964
976
1002
1014
1026
1036
1048
1068
1076
1084
1090
1096
1104
1106
1108
1108
1108
1106
1104
1096
1090
1086
1080
1074
1060
1052
1044
1036
1028
1020
1014
998
990
984
976
970
956
948
942
934
928
912
904
898
890
882
872
864
846
836
828
818
810
790
780
770
760
750
738
728
708
698
688
678
668
650
640
632
622
614
596
588
580
572
566
558
552
540
534
528
522
516
506
500
496
490
486
482
478
468
462
458
452
448
438
432
428
422
418
408
402
396
390
386
380
376
368
364
360
356
354
350
348
346
346
346
346
346
348
348
350
352
354
356
356
356
356
356
356
356
352
348
346
342
340
330
324
318
312
306
294
286
280
272
264
256
250
238
232
226
220
214
206
202
198
196
194
192
190
188
188
188
190
190
194
198
200
204
206
216
220
224
230
234
238
246
250
254
258
262
268
270
272
272
274
274
274
272
270
268
264
262
252
246
240
232
226
210
202
192
182
172
160
148
124
112
98
84
70
38
22
6
4
0
-31
-63
-73
-93
-115
-141
-167
-197
-213
-231
-243
-257
-269
-275
-281
-277
-273
-293
-313
-399
-365
-331
-277
-225
-255
-145
-37
90
216
352
490
780
982
1186
1276
1366
1618
1380
1144
1020
898
572
246
-441
-717
-995
-1161
-1329
-1429
-1397
-1365
-1289
-1213
-1225
-1227
-1229
-1221
-1213
-1201
-1191
-1173
-1169
-1167
-1163
-1161
-1155
-1151
-1149
-1147
-1145
-1141
-1139
-1133
-1127
-1123
-1115
-1109
-1091
-1081
-1071
-1057
-1045
-1015
-1019
-1023
-1003
-983
-961
-941
-895
-869
-845
-819
-793
-739
-713
-687
-661
-635
-609
-585
-541
-519
-499
-487
-477
-449
-435
-423
-411
-399
-377
-365
-353
-341
-331
-319
-307
-281
-265
-249
-255
-261
-221
-195
-171
-165
-159
-121
-83
-1
42
84
126
168
250
288
326
360
394
454
480
506
514
524
548
572
616
636
658
676
696
724
736
750
760
772
778
786
792
792
792
788
786
772
760
748
762
778
756
736
682
670
660
620
582
498
454
410
364
318
228
184
140
100
58
22
-15
-77
-73
-71
-91
-111
-125
-135
-145
-151
-159
-163
-167
-173
-173
-175
-173
-173
-169
-165
-161
-157
-153
-143
-137
-133
-127
-123
-117
-113
-103
-99
-95
-91
-89
-83
-81
-79
-77
-77
-75
-75
-75
-75
-75
-75
-75
-75
-75
-77
-77
-79
-81
-83
-85
-87
-89
-91
-95
-101
-103
-107
-111
-115
-125
-129
-133
-137
-141
-145
-149
-155
-157
-161
-161
-163
-167
-167
-167
-167
-167
-165
-163
-163
-163
-163
-161
-161
-161
-161
-163
-163
-163
-167
-167
-169
-171
-173
-175
-179
-183
-185
-187
-189
-193
-199
-201
-203
-205
-209
-213
-217
-223
-227
-231
-235
-239
-249
-253
-257
-261
-265
-271
-273
-277
-279
-281
-281
-283
-283
-281
-281
-279
-277
-271
-267
-263
-257
-253
-247
-241
-227
-219
-213
-203
-195
-177
-167
-159
-147
-137
-117
-107
-99
-89
-81
-73
-65
-51
-47
-43
-39
-37
-37
-37
-39
-43
-47
-51
-57
-71
-79
-87
-95
-103
-121
-129
-137
-145
-153
-165
-171
-177
-181
-185
-187
-191
-195
-195
-197
-195
-195
-193
-191
-191
-189
-187
-185
-183
-177
-175
-173
-171
-169
-165
-163
-163
-161
-161
-161
-161
-163
-163
-165
-167
-171
-177
-181
-185
-189
-195
-205
-211
-219
-225
-233
-241
-249
-267
-275
-285
-293
-303
-321
-329
-339
-347
-357
-365
-373
-385
-389
-393
-395
-397
-395
-393
-393
-387
-381
-357
-341
-327
-339
-353
-327
-301
-315
-267
-221
-159
-97
-59
16
90
196
302
450
598
896
1042
1188
1524
1860
1998
2030
2062
2118
2176
1504
1062
620
188
-243
-441
-641
-827
-795
-765
-619
-475
-467
-439
-413
-375
-337
-303
-271
-291
-287
-283
-271
-261
-247
-241
-237
-233
-231
-225
-221
-219
-215
-211
-207
-203
-191
-183
-177
-167
-157
-135
-121
-107
-91
-75
-77
-79
-37
-13
10
34
58
108
132
156
180
202
242
260
280
298
316
332
348
378
392
406
418
432
458
470
482
494
506
518
530
554
564
576
588
600
626
638
652
664
678
692
708
738
754
772
774
776
812
832
852
874
896
942
964
988
1012
1036
1060
1084
1132
1156
1180
1202
1224
1256
1270
1286
1298
1312
1322
1332
1344
1348
1352
1352
1352
1348
1342
1336
1328
1320
1298
1284
1270
1254
1240
1238
1238
1198
1178
1158
1136
1116
1074
1052
1030
1008
986
962
938
892
866
842
816
790
738
712
686
658
632
580
554
528
504
480
456
432
390
370
352
340
328
300
288
276
266
256
246
238
222
216
210
204
196
184
180
174
168
162
152
146
140
134
128
122
116
104
98
90
84
78
62
56
48
40
32
24
14
-3
-11
-21
-31
-41
-61
-71
-83
-93
-103
-113
-123
-141
-149
-157
-163
-171
-183
-187
-191
-193
-197
-199
-199
-199
-197
-197
-195
-193
-189
-187
-185
-183
-183
-181
-181
-181
-181
-183
-185
-187
-193
-197
-201
-205
-209
-219
-225
-231
-237
-243
-257
-263
-271
-279
-289
-297
-307
-329
-341
-355
-369
-383
-415
-411
-409
-429
-449
-471
-495
-545
-565
-587
-617
-649
-713
-747
-781
-813
-847
-885
-907
-931
-935
-941
-953
-965
-981
-983
-987
-987
-989
-985
-979
-973
-965
-957
-945
-935
-911
-897
-885
-871
-857
-827
-813
-799
-783
-769
-741
-727
-713
-699
-687
-673
-661
-635
-623
-611
-599
-589
-567
-557
-549
-539
-531
-523
-515
-503
-497
-493
-487
-483
-477
-473
-469
-465
-463
-459
-455
-447
-439
-433
-425
-417
-395
-381
-369
-353
-339
-353
-329
-307
-283
-259
-231
-205
-153
-127
-101
-77
-53
-27
-11
2
14
26
36
46
60
64
68
72
74
74
74
72
70
68
62
58
54
50
46
42
38
32
30
28
26
24
24
26
28
28
28
34
38
56
64
72
64
56
94
76
58
100
140
248
226
204
314
424
572
720
962
1202
1442
1610
1778
2350
2484
2618
2620
2622
2334
2048
1724
1344
966
612
258
-263
-383
-505
-485
-467
-103
-113
-123
-103
-85
-51
-17
50
74
98
102
104
128
152
174
188
202
224
244
254
264
272
280
290
292
296
296
296
294
292
284
278
272
264
256
240
230
222
214
206
192
186
178
174
170
168
166
166
170
172
178
182
194
202
208
214
222
228
236
250
254
260
264
268
270
268
266
262
258
244
236
228
218
208
198
186
160
148
136
126
114
94
86
78
72
66
62
58
58
62
64
70
76
92
104
114
128
140
166
180
194
206
218
230
242
262
268
274
276
280
278
272
266
254
244
266
288
246
220
196
176
156
68
26
-15
-55
-95
-165
-195
-225
-231
-237
-261
-285
-323
-329
-337
-347
-359
-375
-381
-387
-391
-395
-397
-399
-399
-397
-395
-391
-387
-375
-369
-363
-353
-345
-335
-327
-307
-295
-283
-271
-259
-233
-219
-205
-191
-177
-149
-135
-121
-105
-91
-77
-63
-35
-21
-9
4
18
44
58
70
84
96
110
122
148
160
172
186
198
222
234
246
258
270
294
304
314
324
336
344
354
372
380
388
394
402
414
420
426
430
436
440
446
456
460
464
468
472
480
484
488
492
496
504
506
510
514
520
524
528
536
540
546
550
556
566
570
576
580
586
590
594
602
604
608
610
614
618
618
618
618
618
616
614
614
612
610
606
604
600
598
596
596
596
596
598
600
604
608
614
620
634
644
654
664
676
702
716
730
744
760
774
788
816
828
840
850
860
876
878
882
882
882
876
868
860
846
834
850
866
822
794
768
752
738
654
610
568
524
482
442
404
396
372
348
328
308
276
266
258
246
236
202
190
180
168
158
146
122
112
100
90
78
56
46
34
26
16
8
-1
-13
-19
-25
-27
-31
-33
-33
-35
-33
-33
-29
-27
-25
-23
-21
-19
-19
-17
-17
-19
-21
-25
-31
-37
-43
-49
-55
-63
-71
-89
-97
-107
-117
-127
-145
-155
-165
-175
-185
-201
-209
-217
-223
-231
-235
-241
-247
-247
-247
-247
-249
-245
-237
-231
-217
-203
-189
-175
-187
-207
-227
-193
-161
-59
14
86
68
50
178
304
634
828
1022
1192
1362
1936
2176
2416
2350
2284
2104
2012
1920
1482
1044
584
124
-589
-765
-943
-947
-953
-771
-745
-721
-731
-743
-781
-819
-827
-835
-845
-865
-887
-889
-927
-967
-1009
-1051
-1141
-1189
-1239
-1287
-1335
-1381
-1427
-1429
-1427
-1425
-1437
-1449
-1461
-1461
-1461
-1455
-1449
-1439
-1431
-1407
-1391
-1377
-1375
-1373
-1325
-1301
-1277
-1253
-1231
-1189
-1169
-1151
-1135
-1119
-1103
-1087
-1055
-1039
-1025
-1009
-993
-963
-961
-961
-945
-931
-913
-897
-857
-835
-813
-789
-765
-711
-691
-671
-637
-603
-533
-499
-465
-433
-401
-371
-341
-285
-259
-233
-205
-179
-125
-95
-67
-35
-5
28
60
132
168
204
238
272
338
350
362
370
380
392
406
422
424
428
428
428
418
406
396
414
432
390
364
340
328
316
276
238
156
114
70
28
-13
-99
-139
-181
-221
-261
-299
-337
-409
-441
-475
-479
-485
-499
-511
-523
-529
-537
-543
-539
-537
-533
-529
-519
-509
-483
-493
-503
-479
-457
-405
-389
-375
-339
-305
-267
-231
-155
-117
-81
-45
-9
6
30
52
72
90
104
116
128
138
146
154
162
176
182
188
194
198
206
210
216
220
222
226
234
236
240
242
246
250
252
254
254
256
256
256
256
254
254
252
250
244
242
240
236
232
226
222
220
216
214
210
206
204
202
200
198
196
196
196
196
194
194
194
196
196
196
198
198
200
202
204
206
208
216
220
224
230
236
242
256
264
274
284
294
316
328
340
354
368
380
394
422
436
450
464
478
504
518
532
544
558
584
596
608
620
634
644
656
680
690
702
710
720
738
744
752
756
762
764
766
766
762
760
754
750
732
720
710
696
684
654
638
622
604
588
576
566
520
504
488
474
460
434
422
412
402
394
386
380
372
368
366
364
364
366
368
370
372
376
382
386
390
394
400
404
408
418
422
428
432
436
446
450
456
460
464
468
474
484
488
492
496
500
506
508
510
510
512
510
510
506
502
498
492
486
470
460
452
440
430
408
396
384
372
360
348
336
314
304
294
284
276
262
256
252
248
244
240
238
238
238
240
242
246
258
264
272
282
292
312
326
340
334
330
350
370
410
436
462
466
470
554
608
664
654
646
738
830
1070
1202
1334
1480
1628
1854
1926
1998
2280
2564
2268
2112
1958
1812
1668
1246
826
-57
-367
-679
-889
-1101
-1247
-1213
-1181
-1099
-1017
-1009
-1001
-1077
-1075
-1075
-1069
-1063
-1055
-1057
-1059
-1061
-1065
-1065
-1063
-1063
-1061
-1059
-1055
-1051
-1041
-1033
-1027
-1017
-1009
-989
-977
-965
-951
-939
-925
-911
-883
-867
-853
-839
-827
-799
-787
-775
-763
-753
-743
-733
-715
-707
-699
-693
-687
-675
-669
-665
-661
-657
-649
-643
-639
-633
-629
-621
-615
-601
-591
-581
-569
-557
-531
-515
-499
-503
-509
-487
-467
-417
-391
-365
-345
-327
-259
-223
-189
-153
-119
-47
-9
26
62
98
132
166
230
242
254
276
300
340
346
354
364
376
384
392
404
408
412
412
414
410
406
402
396
390
374
364
354
342
330
316
304
276
260
244
228
204
186
166
146
126
106
84
44
24
4
-15
-35
-65
-79
-93
-105
-119
-141
-149
-159
-167
-175
-181
-187
-195
-197
-201
-203
-205
-207
-207
-207
-205
-205
-203
-203
-199
-197
-195
-193
-191
-189
-187
-185
-183
-183
-183
-183
-185
-185
-187
-189
-193
-199
-203
-207
-211
-217
-227
-233
-239
-243
-249
-253
-259
-267
-269
-273
-275
-277
-275
-273
-271
-267
-263
-257
-251
-235
-225
-217
-205
-195
-173
-161
-149
-137
-127
-107
-97
-89
-81
-75
-71
-67
-63
-63
-65
-67
-71
-81
-87
-93
-99
-107
-113
-121
-133
-137
-143
-145
-149
-149
-147
-147
-143
-139
-127
-119
-111
-101
-93
-83
-73
-51
-41
-31
-21
-11
6
16
24
32
40
46
52
64
70
76
82
86
98
104
108
114
120
132
138
144
150
156
162
168
180
186
190
196
200
206
208
208
208
208
208
206
198
194
190
184
178
166
160
152
146
138
132
124
112
106
100
96
92
86
84
82
82
82
82
84
86
90
92
96
100
110
116
120
126
132
146
152
158
166
172
180
188
202
210
216
224
232
248
256
264
270
278
290
294
300
304
310
312
314
318
318
318
316
314
306
300
296
290
284
276
270
252
242
234
224
214
194
184
174
164
152
130
120
110
102
92
84
74
58
52
46
42
36
30
30
28
30
32
36
40
54
62
70
82
92
124
140
156
156
154
206
202
198
236
276
330
386
392
482
574
690
806
1060
1186
1312
1384
1458
1692
1928
2056
2012
1968
1938
1908
1238
826
414
84
-247
-467
-687
-811
-751
-693
-559
-425
-413
-381
-351
-311
-271
-201
-175
-151
-143
-137
-113
-89
-45
-25
-5
10
26
54
68
80
92
102
112
120
136
142
148
152
156
160
162
162
162
162
158
156
154
152
148
146
142
134
130
124
120
116
108
104
100
96
92
90
86
82
80
78
78
78
78
80
82
86
88
98
104
110
118
124
134
142
162
174
184
196
208
232
246
260
274
288
302
318
346
360
376
390
404
432
446
460
472
486
510
520
532
542
552
560
568
582
586
592
594
598
598
596
594
588
584
576
568
548
534
522
506
490
498
476
456
432
408
380
354
314
284
256
226
198
132
98
62
28
-7
-41
-49
-57
-71
-85
-95
-105
-119
-121
-125
-125
-125
-121
-117
-113
-107
-103
-97
-93
-83
-77
-73
-69
-67
-61
-59
-59
-59
-59
-59
-59
-61
-61
-63
-63
-65
-65
-63
-63
-61
-61
-59
-57
-55
-53
-53
-51
-51
-49
-49
-51
-53
-55
-59
-63
-67
-71
-75
-85
-89
-95
-99
-105
-109
-113
-121
-123
-127
-129
-131
-133
-133
-135
-135
-135
-135
-135
-137
-137
-137
-137
-139
-143
-145
-147
-149
-151
-157
-159
-161
-163
-167
-169
-171
-175
-175
-177
-177
-179
-181
-181
-181
-181
-183
-185
-187
-191
-193
-195
-199
-203
-211
-215
-221
-225
-231
-235
-241
-249
-253
-257
-259
-261
-261
-259
-259
-255
-253
-243
-235
-227
-219
-211
-201
-191
-171
-161
-151
-141
-131
-113
-105
-97
-91
-85
-81
-77
-71
-71
-71
-71
-73
-79
-83
-87
-93
-99
-111
-117
-123
-129
-135
-139
-145
-155
-157
-161
-161
-163
-161
-159
-157
-153
-149
-143
-137
-121
-113
-105
-95
-85
-67
-57
-47
-37
-27
-9
0
10
18
26
36
44
60
68
74
82
90
104
112
118
124
130
136
140
146
148
148
148
146
138
132
126
116
106
78
64
48
52
56
32
8
-43
-69
-97
-123
-149
-197
-219
-241
-249
-257
-269
-281
-301
-307
-313
-315
-319
-321
-317
-315
-309
-303
-295
-287
-263
-249
-237
-221
-207
-173
-171
-171
-153
-137
-81
-55
-29
-19
-11
26
64
28
162
296
292
288
522
654
786
938
1090
1234
1378
1752
1904
2058
2074
2090
1712
1626
1540
1242
946
252
-101
-457
-621
-787
-847
-907
-773
-645
-519
-519
-519
-505
-483
-461
-393
-327
-345
-365
-343
-329
-317
-301
-287
-259
-247
-237
-223
-209
-181
-165
-151
-135
-121
-105
-91
-61
-45
-31
-17
-5
16
26
36
44
50
56
62
68
70
72
74
74
72
72
70
70
68
66
66
66
66
66
68
68
70
72
74
78
80
86
90
92
96
100
104
106
116
120
124
130
136
148
156
164
174
184
196
206
230
244
258
274
290
294
314
336
358
380
424
446
468
484
500
514
528
554
562
572
578
586
594
594
596
592
590
584
578
562
550
538
522
506
520
498
476
450
424
400
362
326
286
248
210
170
92
56
18
-15
-51
-117
-147
-177
-187
-197
-219
-243
-267
-281
-295
-305
-317
-333
-339
-345
-349
-355
-359
-359
-361
-361
-361
-359
-359
-355
-353
-353
-351
-351
-349
-349
-349
-349
-349
-351
-353
-357
-361
-365
-369
-373
-383
-389
-395
-399
-405
-417
-423
-429
-433
-439
-443
-449
-457
-459
-463
-465
-469
-471
-471
-473
-471
-471
-469
-469
-465
-461
-457
-453
-449
-441
-435
-429
-423
-417
-411
-405
-391
-383
-375
-367
-361
-345
-337
-329
-321
-315
-299
-291
-285
-277
-269
-261
-255
-241
-235
-229
-221
-215
-205
-199
-195
-189
-185
-181
-179
-175
-173
-173
-173
-173
-177
-179
-181
-185
-189
-197
-201
-205
-209
-215
-217
-221
-227
-229
-233
-233
-233
-233
-231
-231
-227
-225
-221
-219
-211
-207
-203
-199
-195
-187
-185
-183
-181
-179
-179
-179
-179
-181
-183
-185
-189
-197
-201
-207
-211
-217
-229
-233
-239
-243
-249
-253
-259
-265
-267
-271
-271
-273
-275
-273
-273
-271
-269
-263
-259
-255
-249
-245
-237
-231
-217
-207
-199
-189
-179
-157
-145
-133
-119
-105
-89
-75
-45
-43
-41
-21
-3
36
58
78
100
120
142
164
194
206
218
228
238
254
258
264
266
268
266
262
258
252
246
236
228
208
198
186
174
160
136
124
112
100
88
78
68
52
46
38
34
28
22
22
20
22
22
28
34
38
46
54
64
74
96
110
124
120
114
156
178
198
224
250
252
254
340
398
456
456
456
612
726
840
990
1140
1492
1674
1856
2120
2384
2604
2826
3026
2966
2906
2686
2468
1788
1388
990
638
286
16
-255
-549
-583
-617
-569
-521
-327
-313
-301
-291
-281
-193
-165
-139
-119
-99
-85
-73
-27
-5
16
38
58
96
116
134
150
166
180
194
216
226
238
246
256
270
274
280
284
288
290
294
296
296
296
294
294
290
286
284
280
278
272
268
264
260
256
252
248
242
238
236
234
232
230
230
232
234
236
240
246
258
266
276
288
300
326
342
360
356
352
394
418
444
470
496
520
544
612
636
660
676
692
724
734
746
752
760
764
768
764
756
748
734
722
756
732
708
700
692
610
566
524
478
434
390
346
260
220
180
142
104
34
0
-33
-63
-93
-123
-153
-207
-233
-261
-287
-313
-365
-391
-417
-445
-473
-531
-563
-595
-629
-663
-697
-733
-801
-835
-869
-881
-893
-939
-959
-979
-987
-995
-1007
-1019
-1037
-1045
-1053
-1057
-1063
-1071
-1073
-1075
-1075
-1075
-1075
-1075
-1073
-1071
-1071
-1069
-1069
-1067
-1065
-1063
-1061
-1061
-1059
-1057
-1057
-1055
-1055
-1053
-1051
-1045
-1041
-1039
-1035
-1031
-1019
-1013
-1007
-999
-993
-985
-977
-961
-953
-945
-935
-927
-911
-903
-897
-891
-885
-873
-869
-865
-861
-859
-857
-857
-857
-857
-857
-859
-861
-865
-867
-871
-873
-877
-879
-881
-885
-887
-889
-889
-889
-889
-887
-885
-881
-879
-873
-867
-863
-857
-853
-845
-839
-827
-819
-813
-807
-801
-789
-783
-777
-771
-767
-763
-759
-753
-749
-747
-745
-743
-739
-737
-737
-735
-733
-727
-723
-721
-715
-711
-705
-699
-685
-677
-669
-659
-651
-633
-623
-613
-603
-595
-585
-577
-561
-553
-547
-541
-535
-527
-523
-521
-517
-515
-513
-511
-509
-507
-505
-503
-503
-499
-495
-493
-489
-487
-479
-473
-469
-463
-459
-451
-445
-431
-423
-415
-407
-399
-379
-369
-359
-347
-335
-323
-311
-287
-273
-259
-245
-231
-201
-185
-171
-155
-139
-107
-91
-77
-61
-47
-33
-19
4
16
26
34
42
54
58
60
62
62
60
58
48
42
34
26
16
-5
-15
-27
-39
-51
-75
-85
-97
-107
-117
-125
-135
-149
-155
-161
-165
-169
-173
-173
-175
-173
-171
-169
-169
-161
-153
-145
-135
-127
-95
-99
-103
-121
-139
-71
-19
30
22
14
102
190
422
566
712
876
1040
1322
1560
1800
2006
2212
2146
2080
1924
1834
1746
1386
1028
176
-159
-495
-633
-771
-827
-885
-813
-691
-571
-565
-559
-545
-525
-507
-483
-459
-419
-419
-419
-411
-403
-393
-385
-371
-365
-359
-353
-349
-339
-333
-329
-323
-317
-309
-303
-289
-281
-273
-263
-255
-237
-227
-217
-209
-201
-185
-177
-171
-165
-161
-157
-153
-151
-151
-151
-151
-153
-161
-165
-169
-173
-179
-185
-191
-201
-207
-213
-217
-221
-229
-231
-233
-233
-235
-235
-233
-231
-227
-225
-221
-217
-205
-197
-189
-181
-173
-153
-141
-131
-119
-107
-93
-79
-49
-31
-15
-15
-15
22
44
64
86
108
154
178
200
222
244
258
274
300
310
320
326
332
336
334
334
328
322
312
302
276
260
244
244
244
196
170
144
118
92
68
44
2
-7
-19
-33
-49
-73
-83
-93
-101
-109
-119
-123
-127
-127
-129
-129
-129
-123
-117
-113
-107
-101
-85
-75
-65
-53
-43
-31
-19
6
20
32
46
60
86
100
112
124
136
158
168
178
186
194
202
208
218
222
228
230
234
240
242
244
246
248
250
252
256
258
260
264
268
278
284
290
296
304
322
332
342
354
366
378
392
418
432
446
460
476
504
518
532
546
560
572
586
610
620
632
642
652
668
674
682
688
694
704
706
710
712
714
714
716
716
716
716
714
714
712
712
712
710
710
710
710
712
712
714
714
716
718
720
722
724
726
728
730
734
736
740
742
746
754
760
766
770
774
790
802
816
804
794
810
828
876
866
858
900
944
1042
1094
1148
1208
1270
1308
1346
1344
1342
1340
1350
1360
1358
1384
1412
1454
1498
1428
1380
1332
1302
1272
1190
1110
942
862
782
714
646
644
606
568
536
506
480
456
426
404
382
360
338
306
292
280
268
258
240
232
226
222
220
218
216
218
220
224
228
234
244
250
256
262
270
276
282
296
302
308
312
318
328
332
338
342
346
352
354
358
360
364
366
370
374
374
376
378
380
382
382
384
384
386
386
388
394
396
398
402
408
414
422
430
446
462
456
452
442
478
516
486
458
580
680
780
892
1006
1248
1312
1378
1506
1634
1840
2046
1922
1820
1720
1468
1216
788
542
298
126
-47
-181
-317
-481
-319
-159
-171
-185
-149
-147
-147
-141
-137
-103
-99
-97
-93
-91
-89
-87
-87
-87
-89
-91
-93
-101
-103
-107
-111
-115
-117
-121
-127
-127
-129
-127
-127
-123
-119
-115
-107
-101
-83
-71
-59
-45
-31
-15
0
-9
12
34
58
82
136
160
184
216
248
280
312
376
394
412
438
464
510
532
556
576
596
634
652
670
686
702
720
738
770
784
800
814
830
858
872
888
902
916
930
946
976
990
1006
1020
1036
1068
1084
1100
1116
1134
1150
1166
1198
1214
1230
1244
1260
1288
1300
1314
1326
1338
1356
1364
1372
1376
1380
1380
1382
1380
1374
1370
1362
1354
1330
1316
1302
1310
1318
1296
1274
1226
1200
1174
1146
1120
1056
1024
994
964
934
878
858
838
812
788
762
738
692
670
648
628
608
576
560
546
532
520
510
500
482
476
470
466
462
458
458
458
458
460
468
472
476
482
488
494
502
516
524
532
540
548
564
572
580
586
594
600
606
616
618
622
622
624
624
620
618
614
610
600
592
586
576
568
558
550
530
520
510
500
490
470
460
452
442
434
424
416
400
392
384
376
370
358
352
346
342
338
334
330
326
324
324
324
324
328
330
334
338
344
356
362
368
374
382
388
396
410
416
422
426
430
438
438
440
438
438
436
434
426
420
416
410
404
390
382
376
368
362
350
344
340
336
332
330
328
326
326
328
330
334
344
350
356
362
370
378
388
408
418
430
442
454
480
494
508
522
538
570
572
574
592
610
628
648
690
710
732
754
776
820
840
862
882
902
918
934
964
976
990
1000
1012
1030
1038
1046
1052
1060
1068
1072
1076
1078
1080
1082
1084
1084
1084
1084
1082
1082
1080
1076
1074
1070
1068
1064
1060
1050
1044
1038
1032
1026
1014
1006
1000
994
988
980
974
964
958
954
950
948
942
940
938
936
936
936
934
934
932
932
930
930
924
920
918
912
908
896
890
884
876
870
862
856
838
832
826
824
824
820
828
836
822
808
732
766
800
850
902
888
874
1092
1218
1344
1474
1606
1838
2050
2262
2336
2410
2388
2366
2078
1932
1788
1374
962
302
82
-139
-211
-283
-177
-39
98
104
108
140
170
248
284
320
312
306
312
322
332
338
346
350
354
354
354
354
352
352
346
344
342
338
336
330
328
328
326
326
324
324
326
328
330
332
334
340
344
348
352
356
362
368
380
386
394
402
410
428
438
448
458
468
480
492
516
528
540
550
562
584
592
602
610
618
632
636
642
646
650
652
656
658
660
662
662
664
666
668
670
672
674
676
680
686
690
694
698
704
714
720
726
732
738
750
756
764
770
778
784
792
804
810
818
822
828
838
840
844
844
846
844
842
834
826
820
810
800
772
784
796
774
754
706
684
664
628
594
560
526
460
428
396
364
334
272
240
208
176
142
110
76
42
20
-3
-23
-43
-53
-65
-77
-85
-95
-109
-113
-119
-121
-125
-125
-127
-127
-125
-123
-121
-119
-111
-107
-103
-97
-91
-83
-77
-63
-53
-45
-35
-25
-5
6
16
26
36
48
58
78
88
96
104
110
122
126
130
132
134
134
134
132
130
128
124
120
110
106
100
96
90
80
76
72
68
62
60
56
48
46
42
40
38
34
34
32
32
30
28
30
30
32
34
38
40
50
58
64
72
80
102
116
128
142
156
174
190
194
214
236
258
280
326
344
362
376
392
418
428
440
448
456
462
468
476
476
478
478
478
474
470
466
460
456
450
446
434
428
422
414
408
394
386
380
372
366
352
344
338
330
324
316
310
296
290
284
278
272
262
258
254
250
246
244
242
238
236
236
236
236
238
238
240
240
240
240
242
244
244
244
242
242
240
238
236
234
232
226
222
220
216
214
208
200
196
190
186
182
172
168
162
156
150
146
140
128
124
118
112
106
96
92
86
82
76
68
66
62
60
56
54
52
50
50
48
48
46
46
46
46
48
48
50
50
56
60
62
66
70
78
86
92
102
112
130
146
162
158
154
144
134
206
256
306
284
264
442
560
678
812
948
1080
1212
1416
1662
1910
1934
1960
1726
1630
1534
1066
598
-339
-685
-1033
-1133
-1235
-1245
-1257
-1095
-987
-879
-843
-809
-713
-625
-537
-525
-513
-473
-435
-371
-341
-311
-305
-299
-285
-271
-259
-251
-243
-237
-231
-227
-225
-225
-225
-225
-229
-233
-237
-239
-243
-251
-253
-257
-259
-261
-263
-265
-265
-265
-265
-263
-263
-259
-257
-257
-253
-251
-249
-247
-243
-239
-237
-235
-233
-225
-221
-217
-211
-207
-193
-183
-175
-163
-153
-139
-125
-95
-99
-105
-83
-61
-15
10
34
60
84
108
130
174
186
196
210
222
246
256
266
274
282
296
300
306
310
314
316
320
324
324
326
326
326
324
322
322
320
318
314
310
302
296
290
284
278
264
254
246
236
228
210
200
190
180
168
158
146
122
110
98
86
72
46
34
20
6
-7
-19
-33
-61
-73
-87
-99
-113
-139
-149
-161
-171
-183
-193
-203
-219
-225
-233
-239
-245
-253
-255
-259
-261
-263
-263
-261
-261
-259
-257
-255
-253
-249
-245
-243
-241
-239
-237
-237
-237
-237
-237
-237
-239
-243
-245
-247
-249
-253
-257
-257
-259
-259
-261
-259
-257
-255
-251
-249
-245
-241
-233
-227
-223
-219
-215
-207
-205
-203
-201
-201
-201
-203
-207
-211
-217
-223
-229
-245
-253
-263
-273
-283
-303
-313
-323
-331
-341
-351
-361
-377
-385
-393
-399
-407
-421
-425
-431
-435
-439
-441
-445
-449
-449
-449
-447
-447
-441
-435
-431
-423
-417
-401
-391
-383
-373
-363
-351
-341
-321
-311
-301
-293
-285
-271
-265
-261
-257
-255
-255
-255
-257
-259
-263
-267
-271
-283
-289
-297
-305
-313
-321
-329
-347
-355
-363
-371
-379
-395
-403
-411
-417
-425
-437
-441
-447
-451
-457
-459
-463
-467
-467
-469
-467
-467
-465
-461
-459
-455
-451
-445
-441
-429
-423
-417
-409
-403
-387
-379
-373
-365
-357
-343
-335
-329
-323
-317
-311
-307
-301
-299
-299
-299
-299
-305
-309
-313
-319
-325
-333
-343
-361
-373
-385
-395
-407
-433
-445
-457
-469
-483
-505
-515
-527
-535
-545
-553
-561
-573
-577
-583
-585
-589
-593
-593
-593
-591
-591
-587
-585
-577
-571
-567
-559
-553
-535
-527
-519
-507
-497
-467
-469
-473
-451
-429
-409
-389
-405
-371
-337
-287
-239
-107
-117
-127
-15
94
234
374
696
864
1032
1170
1310
1834
1938
2044
1952
1862
1754
1646
1444
1100
756
346
-63
-721
-933
-1147
-1189
-1233
-1049
-927
-807
-801
-797
-767
-737
-665
-637
-611
-617
-623
-577
-565
-555
-533
-513
-499
-487
-463
-449
-435
-421
-409
-385
-373
-361
-349
-339
-315
-305
-295
-283
-273
-263
-253
-231
-221
-211
-201
-191
-169
-157
-147
-135
-125
-113
-101
-75
-61
-49
-35
-23
4
18
30
42
54
78
90
100
110
120
130
138
154
162
168
176
182
196
204
210
218
226
236
246
270
284
298
312
328
322
344
368
392
416
466
490
516
538
562
584
606
630
644
658
670
684
704
712
720
726
732
736
740
744
742
742
738
736
724
716
708
698
688
674
662
632
638
644
622
602
554
526
498
476
456
392
358
326
290
254
216
180
100
60
18
-19
-59
-77
-99
-123
-127
-131
-143
-157
-173
-177
-183
-185
-189
-191
-189
-187
-183
-181
-173
-167
-161
-155
-149
-143
-137
-125
-119
-113
-107
-103
-95
-91
-87
-85
-83
-81
-81
-81
-83
-85
-87
-89
-97
-101
-105
-111
-117
-127
-131
-137
-141
-147
-151
-155
-159
-161
-163
-163
-163
-161
-157
-155
-151
-147
-141
-137
-127
-121
-115
-109
-103
-93
-87
-83
-77
-73
-67
-65
-63
-61
-59
-59
-59
-61
-63
-65
-67
-71
-79
-83
-87
-91
-97
-103
-109
-123
-129
-137
-145
-153
-171
-179
-189
-197
-207
-217
-227
-245
-255
-265
-273
-283
-299
-305
-313
-317
-323
-331
-331
-333
-333
-333
-329
-327
-317
-309
-303
-295
-287
-269
-259
-251
-241
-233
-225
-217
-205
-199
-195
-193
-191
-189
-191
-193
-195
-199
-209
-215
-221
-227
-235
-241
-249
-263
-269
-277
-283
-291
-307
-313
-321
-329
-337
-345
-355
-373
-383
-393
-403
-413
-435
-445
-457
-467
-479
-499
-507
-517
-523
-531
-535
-541
-547
-545
-545
-541
-539
-529
-521
-513
-503
-495
-483
-471
-447
-435
-423
-409
-397
-375
-365
-355
-345
-337
-321
-315
-311
-307
-303
-301
-299
-299
-299
-299
-301
-303
-307
-309
-311
-311
-313
-313
-315
-315
-313
-311
-307
-305
-295
-287
-279
-269
-259
-245
-233
-211
-195
-181
-181
-181
-127
-113
-101
-59
-17
-81
-15
48
148
248
380
514
824
986
1148
1374
1602
1938
2032
2128
2116
2104
1968
1832
1334
1018
704
416
128
-297
-399
-503
-511
-519
-361
-381
-401
-365
-331
-321
-311
-269
-245
-223
-207
-191
-153
-131
-111
-95
-79
-63
-49
-19
-3
10
26
40
72
88
104
104
102
134
154
174
196
216
240
266
318
344
372
406
442
510
524
538
562
586
608
632
672
690
708
722
738
768
782
796
808
822
846
856
868
878
888
898
908
926
934
944
954
964
982
990
1000
1010
1022
1032
1044
1068
1080
1094
1108
1124
1120
1138
1156
1176
1196
1218
1240
1288
1312
1338
1364
1390
1442
1462
1482
1498
1514
1538
1546
1554
1558
1564
1562
1562
1548
1534
1522
1542
1564
1518
1510
1502
1456
1412
1366
1320
1234
1194
1156
1124
1094
1102
1080
1058
1038
1020
984
960
938
922
908
900
892
840
824
808
792
778
750
736
722
710
698
688
678
664
658
652
650
648
648
650
654
658
664
680
688
698
708
718
728
740
762
772
784
792
802
818
824
832
836
842
844
846
848
848
848
844
842
836
830
826
820
816
806
800
796
790
786
780
776
768
762
758
754
750
742
736
732
726
722
716
710
698
690
684
676
670
654
646
638
630
622
614
608
594
588
584
578
574
568
566
566
564
564
564
564
564
564
564
562
562
558
554
552
548
544
532
524
518
510
502
492
484
466
456
448
438
430
416
410
404
398
394
386
384
382
380
380
378
378
378
378
380
380
380
380
380
380
378
378
376
374
372
370
368
366
366
362
362
362
360
360
362
362
364
366
368
370
374
378
382
386
388
392
398
400
402
404
408
408
410
414
414
416
416
416
418
418
418
418
418
416
416
416
416
416
414
414
412
412
412
410
410
408
408
408
406
406
406
406
406
406
408
408
410
410
410
412
412
414
414
414
414
412
412
408
406
398
392
386
378
372
354
344
334
322
312
300
288
266
254
244
234
226
208
202
196
190
184
186
186
152
168
182
158
132
208
180
150
236
322
540
662
786
908
1030
1136
1242
1594
1648
1702
1682
1664
1456
1352
1250
954
658
312
-31
-579
-765
-953
-1017
-1081
-1003
-903
-805
-779
-755
-749
-713
-677
-641
-607
-579
-551
-543
-529
-515
-501
-487
-465
-457
-451
-447
-443
-439
-437
-435
-435
-435
-437
-439
-445
-447
-451
-453
-457
-463
-465
-467
-469
-471
-473
-475
-477
-477
-477
-475
-475
-473
-469
-467
-463
-459
-455
-451
-439
-431
-425
-417
-409
-393
-383
-375
-365
-357
-347
-337
-319
-311
-303
-295
-287
-273
-267
-261
-255
-251
-241
-235
-231
-227
-223
-217
-213
-203
-197
-193
-187
-181
-167
-159
-153
-145
-137
-129
-121
-105
-97
-91
-85
-79
-67
-63
-59
-55
-53
-51
-51
-51
-53
-55
-59
-63
-75
-81
-89
-97
-107
-127
-137
-149
-161
-175
-187
-201
-229
-243
-259
-273
-289
-321
-337
-353
-369
-385
-417
-433
-451
-467
-483
-499
-515
-545
-559
-575
-589
-603
-629
-641
-653
-663
-675
-683
-693
-709
-713
-719
-723
-727
-731
-731
-733
-731
-729
-723
-717
-711
-705
-699
-689
-681
-663
-651
-641
-629
-617
-591
-577
-565
-551
-537
-521
-507
-479
-463
-449
-435
-421
-393
-379
-367
-353
-341
-329
-317
-295
-285
-275
-265
-257
-239
-233
-227
-221
-215
-205
-201
-199
-197
-197
-195
-195
-197
-199
-201
-203
-205
-211
-213
-215
-217
-221
-221
-223
-225
-223
-221
-217
-215
-207
-199
-193
-183
-175
-155
-143
-133
-121
-109
-97
-85
-61
-49
-37
-27
-17
0
8
16
22
28
32
36
42
42
42
42
40
34
30
26
22
16
2
-3
-11
-17
-25
-33
-41
-55
-61
-67
-73
-79
-91
-95
-99
-101
-105
-107
-109
-113
-113
-115
-115
-115
-115
-115
-115
-113
-113
-113
-111
-111
-109
-107
-105
-103
-99
-95
-93
-87
-83
-73
-65
-59
-51
-45
-35
-27
-9
0
8
18
28
46
56
64
72
78
86
92
100
104
106
108
108
104
100
96
92
86
70
62
52
42
32
22
12
-9
-19
-31
-41
-51
-69
-75
-83
-87
-93
-97
-101
-103
-103
-103
-99
-97
-87
-81
-75
-67
-59
-41
-31
-21
-11
-1
10
20
44
56
66
78
90
112
124
136
152
166
180
192
196
214
232
222
214
284
336
388
356
324
516
650
784
944
1106
1248
1392
1930
2126
2324
2238
2154
1972
1866
1760
1388
1016
582
148
-549
-671
-795
-823
-853
-701
-591
-483
-463
-445
-375
-335
-295
-259
-225
-199
-175
-147
-121
-97
-67
-39
10
32
54
76
96
110
122
150
160
170
178
186
198
202
204
204
204
204
202
196
194
190
186
182
176
174
170
168
166
166
166
166
168
170
174
178
186
190
194
200
204
214
218
222
226
232
236
240
248
252
258
262
266
276
282
290
296
304
324
336
348
362
376
392
408
398
420
444
468
492
544
570
598
624
652
676
702
750
758
768
782
796
818
824
832
836
842
844
842
840
834
830
822
814
794
782
770
756
742
710
708
708
688
668
646
626
584
562
542
520
500
458
438
420
404
388
358
344
330
318
306
294
282
260
248
238
228
218
198
188
178
168
158
148
136
114
102
90
78
66
40
28
14
2
-11
-25
-39
-67
-81
-95
-109
-123
-151
-165
-179
-191
-205
-231
-243
-255
-267
-279
-289
-301
-319
-327
-337
-343
-351
-363
-367
-371
-373
-375
-375
-377
-373
-369
-367
-361
-355
-343
-335
-327
-319
-311
-295
-287
-279
-271
-265
-259
-255
-249
-249
-249
-251
-255
-265
-273
-281
-291
-303
-315
-329
-359
-375
-391
-407
-423
-457
-471
-487
-501
-515
-541
-551
-561
-569
-577
-583
-589
-595
-595
-597
-595
-595
-591
-587
-585
-579
-575
-571
-567
-557
-551
-547
-543
-539
-533
-529
-527
-525
-525
-523
-523
-523
-523
-525
-527
-529
-531
-533
-535
-537
-539
-543
-543
-545
-545
-547
-547
-549
-547
-545
-545
-543
-543
-539
-535
-533
-531
-529
-525
-523
-517
-513
-511
-507
-505
-501
-499
-497
-493
-491
-487
-485
-483
-479
-477
-473
-471
-463
-459
-455
-449
-443
-429
-419
-411
-401
-393
-381
-369
-345
-331
-319
-305
-291
-261
-247
-233
-219
-205
-177
-165
-153
-143
-133
-123
-115
-103
-99
-95
-93
-91
-93
-97
-101
-105
-111
-119
-127
-145
-155
-165
-175
-187
-211
-223
-237
-249
-261
-285
-297
-309
-321
-333
-343
-355
-375
-383
-393
-399
-407
-419
-423
-427
-429
-431
-429
-427
-423
-415
-409
-395
-383
-355
-365
-377
-351
-325
-339
-293
-247
-185
-123
-115
-107
72
188
304
448
592
924
1078
1232
1460
1688
1896
2106
2112
2074
2038
2024
2012
1322
880
440
4
-431
-649
-869
-1081
-1055
-1029
-873
-717
-707
-675
-643
-597
-553
-467
-435
-403
-411
-421
-401
-381
-353
-339
-327
-317
-307
-289
-279
-271
-261
-253
-245
-237
-221
-213
-205
-197
-189
-173
-163
-155
-147
-139
-123
-115
-109
-101
-95
-89
-83
-71
-67
-63
-59
-57
-53
-51
-51
-51
-53
-55
-57
-63
-67
-73
-79
-85
-99
-105
-113
-119
-127
-139
-145
-151
-155
-159
-161
-163
-163
-159
-157
-151
-147
-131
-121
-111
-99
-87
-73
-61
-31
-17
-3
10
24
50
62
74
84
94
110
116
122
126
130
132
134
134
132
128
124
120
106
98
88
78
66
54
42
12
16
20
2
-17
-61
-85
-111
-125
-141
-177
-213
-285
-321
-359
-395
-431
-503
-539
-575
-609
-645
-711
-725
-741
-763
-787
-807
-827
-833
-843
-855
-863
-871
-885
-889
-895
-899
-903
-905
-909
-913
-915
-919
-921
-923
-931
-933
-937
-941
-945
-955
-959
-963
-967
-973
-977
-981
-987
-989
-991
-993
-995
-995
-995
-995
-993
-991
-989
-987
-983
-979
-977
-973
-971
-965
-963
-961
-957
-955
-953
-951
-949
-947
-947
-945
-945
-945
-943
-943
-943
-943
-941
-941
-941
-941
-941
-941
-941
-943
-943
-943
-943
-945
-949
-949
-951
-953
-955
-961
-963
-965
-967
-969
-971
-973
-975
-975
-977
-977
-977
-977
-977
-977
-975
-975
-973
-973
-971
-971
-971
-969
-969
-967
-965
-965
-963
-963
-961
-961
-957
-953
-951
-947
-943
-933
-927
-921
-913
-907
-891
-881
-873
-863
-855
-845
-837
-819
-811
-805
-799
-793
-783
-779
-777
-777
-777
-779
-781
-789
-795
-803
-811
-819
-837
-847
-859
-869
-879
-901
-909
-919
-927
-935
-941
-949
-959
-961
-963
-963
-963
-959
-955
-951
-945
-941
-933
-927
-913
-905
-899
-891
-883
-869
-861
-853
-845
-839
-823
-815
-807
-799
-791
-781
-771
-751
-739
-727
-713
-701
-675
-661
-647
-631
-617
-603
-591
-565
-553
-541
-531
-521
-505
-499
-493
-489
-485
-483
-483
-485
-487
-489
-491
-495
-503
-507
-513
-517
-521
-527
-529
-531
-531
-533
-531
-529
-521
-515
-509
-501
-493
-469
-453
-437
-419
-403
-381
-359
-359
-349
-339
-303
-267
-177
-165
-153
-93
-35
108
202
296
416
536
684
834
1058
1266
1474
1716
1960
2510
2810
3110
3422
3736
4032
4330
4862
5062
5264
5364
5464
5396
5214
5032
4748
4464
3648
3290
2932
2652
2374
2210
2048
1932
1936
1940
1960
1980
1998
1990
1982
1978
1976
1978
1982
1986
1986
1986
1984
1984
1982
1982
1982
1980
1978
1974
1972
1970
1966
1962
1956
1952
1942
1934
1928
1920
1912
1896
1886
1876
1866
1856
1844
1834
1814
1802
1792
1780
1770
1748
1738
1728
1718
1710
1694
1686
1680
1674
1668
1662
1658
1650
1648
1646
1644
1644
1642
1642
1644
1644
1646
1648
1652
1656
1660
1664
1668
1672
1680
1684
1690
1696
1702
1708
1714
1726
1734
1742
1750
1758
1776
1784
1794
1802
1812
1832
1840
1850
1858
1866
1874
1882
1894
1898
1904
1906
1908
1910
1908
1906
1900
1896
1888
1882
1864
1852
1842
1828
1814
1784
1784
1784
1764
1744
1704
1682
1660
1638
1616
1592
1570
1526
1504
1482
1460
1440
1406
1392
1378
1364
1352
1340
1330
1312
1304
1298
1292
1288
1282
1280
1278
1276
1276
1276
1276
1278
1278
1280
1280
1282
1284
1284
1286
1286
1288
1288
1288
1288
1288
1288
1286
1286
1286
1286
1286
1286
1288
1292
1294
1296
1300
1306
1318
1324
1332
1342
1352
1364
1376
1402
1416
1432
1448
1464
1474
1496
1518
1540
1562
1580
1600
1632
1644
1658
1668
1678
1694
1700
1706
1708
1710
1708
1706
1698
1690
1682
1672
1662
1636
1618
1602
1604
1608
1564
1538
1512
1502
1492
1458
1424
1350
1310
1270
1228
1188
1104
1062
1022
982
942
904
866
796
764
734
732
730
690
678
668
654
642
622
614
608
602
596
590
586
580
578
578
578
578
582
584
588
592
598
604
610
626
634
644
654
664
684
694
704
714
726
744
752
762
768
776
780
784
790
790
790
788
786
776
770
764
754
746
736
728
708
696
686
676
666
648
640
632
624
618
608
604
602
600
600
600
600
602
604
608
610
614
622
626
632
636
640
644
648
656
658
662
664
666
668
668
668
668
668
666
664
656
652
648
642
636
620
610
600
588
578
554
540
526
510
496
480
466
432
416
400
384
368
336
320
306
292
278
264
252
226
216
206
196
186
168
162
154
148
142
136
134
132
130
126
128
128
142
156
168
158
146
182
150
116
158
198
258
318
476
492
508
644
782
1108
1260
1412
1540
1668
2290
2292
2294
2250
2208
2012
1816
1400
866
334
-105
-547
-1089
-1213
-1337
-1189
-1043
-905
-769
-833
-805
-779
-737
-695
-637
-643
-649
-645
-643
-623
-615
-607
-603
-601
-601
-601
-601
-601
-603
-605
-607
-613
-615
-619
-621
-625
-627
-629
-631
-631
-631
-629
-629
-625
-623
-621
-617
-615
-611
-607
-601
-597
-595
-593
-591
-587
-587
-587
-587
-589
-591
-593
-597
-599
-603
-605
-609
-615
-617
-621
-623
-625
-629
-629
-631
-629
-629
-627
-627
-619
-615
-611
-605
-599
-583
-573
-565
-555
-545
-521
-507
-493
-479
-465
-449
-433
-401
-395
-391
-371
-353
-315
-295
-275
-255
-235
-213
-191
-161
-147
-133
-121
-109
-91
-85
-79
-77
-75
-75
-79
-85
-91
-99
-111
-123
-153
-145
-137
-159
-183
-233
-261
-289
-315
-343
-375
-409
-473
-491
-509
-533
-559
-605
-625
-647
-665
-685
-711
-725
-739
-751
-765
-775
-787
-805
-813
-821
-827
-833
-845
-849
-853
-857
-861
-863
-867
-873
-875
-879
-883
-887
-895
-899
-905
-909
-915
-921
-927
-939
-945
-953
-961
-969
-983
-989
-997
-1005
-1013
-1025
-1031
-1039
-1045
-1051
-1057
-1063
-1073
-1077
-1083
-1087
-1093
-1103
-1107
-1113
-1117
-1121
-1125
-1129
-1137
-1139
-1143
-1145
-1149
-1153
-1153
-1155
-1153
-1153
-1149
-1145
-1143
-1139
-1135
-1129
-1125
-1115
-1107
-1101
-1095
-1089
-1075
-1069
-1063
-1057
-1053
-1049
-1045
-1039
-1037
-1035
-1033
-1033
-1035
-1035
-1037
-1039
-1043
-1049
-1051
-1055
-1059
-1063
-1065
-1069
-1077
-1079
-1083
-1085
-1087
-1091
-1091
-1093
-1093
-1093
-1091
-1091
-1085
-1081
-1077
-1071
-1067
-1051
-1041
-1033
-1021
-1011
-985
-969
-955
-957
-959
-939
-919
-877
-855
-833
-809
-787
-739
-715
-691
-667
-643
-619
-595
-547
-521
-497
-473
-449
-401
-377
-355
-333
-311
-291
-271
-233
-219
-207
-193
-179
-153
-141
-129
-117
-107
-87
-75
-65
-55
-47
-37
-27
-5
4
14
24
34
56
66
76
86
94
104
112
126
134
140
148
154
164
170
174
178
182
192
198
202
208
218
226
240
248
256
264
272
290
298
306
314
322
328
336
348
352
358
360
364
366
366
368
366
366
366
364
364
364
366
364
362
366
372
380
388
396
374
392
410
388
366
404
444
554
556
560
652
746
982
1116
1252
1406
1560
1806
1994
2184
2396
2610
2498
2388
2132
2018
1904
1448
992
152
-27
-209
-255
-301
-193
-87
194
208
222
