9824
9854
9861
9855
9861
9889
9927
9952
9957
9952
9953
9964
9977
9988
10000
10017
10033
10035
10021
9999
9988
9995
10013
10031
10041
10049
10068
10100
10138
10165
10169
10150
10121
10102
10108
10135
10167
10181
10166
10125
10073
10025
9994
9984
9993
10015
10035
10039
10016
9970
9915
9876
9874
9908
9951
9966
9934
9872
9824
9821
9859
9905
9925
9914
9886
9853
9808
9746
9678
9640
9658
9725
9804
9855
9861
9827
9771
9717
9687
9700
9746
9786
9779
9720
9654
9640
9695
9778
9828
9821
9778
9736
9705
9673
9640
9630
9669
9745
9806
9811
9766
9724
9728
9774
9817
9823
9798
9773
9771
9784
9792
9783
9763
9745
9737
9740
9754
9774
9788
9786
9768
9747
9738
9743
9751
9751
9745
9747
9759
9771
9767
9750
9741
9759
9792
9809
9785
9730
9685
9688
9742
9815
9863
9867
9836
9796
9764
9746
9745
9762
9792
9820
9816
9768
9690
9625
9605
9631
9670
9692
9695
9702
9727
9757
9767
9743
9706
9685
9694
9720
9745
9766
9793
9828
9853
9847
9809
9762
9731
9728
9744
9765
9778
9777
9761
9733
9713
9719
9751
9784
9789
9764
9739
9743
9767
9774
9733
9658
9602
9602
9651
9703
9719
9696
9662
9646
9657
9688
9724
9751
9759
9752
9746
9761
9797
9829
9826
9780
9719
9683
9686
9710
9730
9739
9752
9777
9803
9809
9795
9782
9789
9807
9806
9767
9705
9658
9646
9661
9674
9674
9672
9682
9697
9693
9660
9620
9613
9662
9742
9805
9815
9780
9738
9720
9727
9735
9731
9724
9732
9759
9781
9774
9742
9718
9736
9790
9844
9860
9834
9794
9765
9747
9725
9692
9671
9681
9721
9762
9777
9765
9748
9747
9764
9789
9811
9825
9821
9789
9729
9667
9644
9679
9752
9811
9819
9780
9732
9709
9719
9748
9776
9800
9825
9853
9880
9897
9897
9874
9830
9776
9730
9710
9720
9750
9780
9795
9791
9773
9750
9733
9731
9742
9755
9754
9737
9717
9715
9738
9769
9784
9772
9741
9712
9697
9695
9700
9712
9729
9745
9748
9732
9706
9692
9707
9746
9787
9806
9795
9770
9749
9743
9745
9742
9731
9720
9723
9744
9778
9823
9895
10010
10164
10317
10416
10445
10443
10474
10567
10682
10739
10685
10535
10346
10169
10016
9874
9740
9627
9549
9505
9486
9489
9518
9569
9621
9654
9676
9710
9769
9827
9838
9786
9708
9666
9691
9761
9821
9838
9820
9793
9776
9767
9757
9747
9742
9743
9747
9752
9762
9780
9802
9817
9818
9809
9797
9785
9774
9765
9760
9762
9773
9792
9820
9849
9864
9844
9790
9735
9721
9763
9825
9855
9827
9768
9725
9720
9739
9758
9775
9805
9849
9883
9878
9843
9822
9848
9910
9956
9948
9899
9852
9843
9867
9894
9905
9905
9909
9923
9939
9954
9968
9985
9999
10002
9988
9965
9945
9940
9948
9965
9980
9985
9978
9963
9954
9961
9981
10005
10026
10048
10083
10130
10172
10192
10186
10167
10149
10133
10118
10112
10125
10161
10204
10227
10218
10185
10150
10123
10107
10101
10109
10129
10141
10121
10067
10006
9977
9994
10030
10042
10012
9957
9913
9899
9910
9926
9930
9914
9876
9826
9781
9767
9791
9837
9875
9881
9858
9826
9806
9805
9818
9833
9842
9835
9810
9773
9741
9730
9749
9792
9844
9891
9919
9915
9879
9823
9773
9743
9728
9715
9703
9713
9759
9825
9871
9867
9824
9788
9792
9829
9860
9857
9825
9791
9770
9757
9745
9738
9750
9776
9796
9796
9788
9798
9837
9883
9898
9872
9837
9831
9864
9903
9908
9864
9796
9738
9712
9714
9730
9755
9789
9831
9870
9888
9877
9844
9812
9801
9822
9860
9887
9877
9827
9758
9700
9680
9703
9759
9826
9878
9904
9902
9886
9869
9854
9838
9820
9806
9806
9815
9815
9788
9739
9696
9688
9719
9766
9805
9834
9862
9890
9900
9876
9822
9769
9746
9754
9773
9783
9788
9801
9824
9840
9830
9795
9755
9734
9739
9764
9795
9821
9834
9835
9830
9832
9849
9872
9878
9855
9812
9777
9768
9776
9777
9761
9740
9735
9751
9771
9774
9765
9767
9798
9851
9892
9897
9864
9818
9783
9766
9762
9766
9778
9802
9828
9839
9821
9779
9738
9727
9753
9795
9824
9824
9807
9799
9812
9833
9832
9800
9758
9745
9780
9844
9895
9902
9868
9819
9785
9775
9780
9793
9808
9820
9824
9815
9797
9783
9780
9789
9799
9801
9798
9793
9784
9763
9730
9701
9703
9750
9825
9887
9902
9868
9818
9792
9806
9849
9892
9914
9910
9883
9843
9802
9775
9773
9789
9802
9796
9773
9756
9767
9806
9852
9886
9905
9919
9929
9922
9884
9825
9774
9761
9792
9848
9902
9936
9941
9920
9881
9846
9836
9853
9877
9879
9857
9843
9868
9925
9964
9939
9855
9770
9737
9763
9802
9814
9799
9788
9799
9816
9810
9772
9727
9707
9722
9758
9796
9824
9836
9827
9797
9762
9748
9769
9809
9840
9846
9835
9819
9799
9766
9737
9753
9848
10004
10153
10233
10247
10257
10324
10449
10579
10665
10702
10718
10729
10718
10660
10552
10415
10264
10094
9901
9712
9581
9537
9562
9602
9621
9632
9667
9735
9802
9835
9836
9838
9862
9888
9875
9813
9742
9716
9749
9804
9835
9826
9806
9804
9822
9839
9839
9829
9828
9843
9860
9865
9856
9844
9837
9827
9805
9779
9769
9793
9844
9894
9915
9906
9888
9884
9902
9929
9944
9940
9929
9930
9950
9973
9976
9951
9911
9883
9877
9884
9881
9864
9847
9851
9877
9909
9928
9929
9927
9933
9947
9964
9984
10007
10023
10009
9948
9859
9790
9785
9847
9939
10021
10078
10115
10136
10126
10077
10010
9972
9991
10051
10109
10141
10159
10186
10225
10246
10229
10186
10156
10160
10180
10183
10161
10141
10148
10178
10207
10220
10231
10256
10287
10295
10261
10210
10183
10200
10236
10251
10238
10221
10227
10246
10247
10213
10166
10140
10144
10156
10150
10128
10114
10118
10114
10068
9974
9873
9820
9841
9912
9985
10022
10013
9971
9921
9888
9890
9928
9976
10001
9980
9923
9868
9850
9874
9919
9951
9948
9913
9869
9841
9844
9871
9901
9909
9891
9863
9852
9872
9915
9953
9964
9942
9905
9874
9864
9869
9877
9875
9864
9855
9858
9874
9893
9909
9925
9948
9975
9990
9974
9933
9896
9890
9913
9930
9909
9860
9829
9855
9926
9991
10001
9958
9904
9876
9874
9870
9846
9821
9825
9870
9930
9968
9974
9966
9968
9982
9989
9971
9931
9893
9873
9874
9885
9897
9908
9917
9920
9914
9902
9893
9895
9903
9905
9898
9889
9889
9902
9917
9922
9915
9910
9925
9963
10002
10016
9990
9939
9892
9874
9881
9890
9872
9823
9765
9731
9743
9795
9865
9927
9965
9979
9972
9955
9936
9923
9919
9919
9916
9905
9888
9869
9852
9844
9856
9897
9960
10017
10031
9986
9903
9827
9796
9815
9866
9927
9981
10013
10000
9927
9816
9725
9711
9782
9882
9939
9928
9882
9854
9862
9879
9880
9868
9875
9914
9965
9988
9975
9948
9935
9936
9931
9904
9873
9863
9878
9897
9898
9882
9867
9865
9871
9875
9881
9895
9912
9909
9876
9842
9851
9916
9995
10023
9973
9888
9837
9854
9913
9961
9973
9962
9953
9951
9943
9922
9899
9887
9885
9882
9868
9855
9856
9876
9906
9937
9968
9996
10006
9987
9941
9892
9863
9859
9865
9866
9866
9878
9905
9934
9952
9958
9961
9963
9952
9921
9883
9869
9891
9934
9971
9988
9996
10007
10015
10007
9984
9969
9985
10020
10041
10023
9981
9954
9963
9990
9994
9962
9914
9883
9881
9891
9891
9884
9886
9910
9947
9978
9987
9974
9948
9923
9906
9908
9929
9957
9974
9963
9932
9898
9881
9882
9894
9908
9922
9933
9934
9922
9902
9889
9894
9907
9907
9879
9835
9802
9807
9848
9903
9950
9983
10016
10065
10135
10222
10324
10438
10560
10671
10753
10799
10826
10853
10874
10860
10775
10617
10423
10238
10077
9925
9769
9633
9571
9610
9724
9841
9901
9898
9863
9825
9792
9764
9760
9802
9889
9977
10014
9988
9938
9919
9951
10002
10031
10020
9987
9951
9916
9877
9844
9844
9889
9964
10024
10036
9998
9941
9904
9914
9968
10042
10095
10098
10051
9991
9959
9972
10000
10004
9968
9921
9896
9903
9920
9925
9925
9944
9989
10038
10061
10050
10031
10028
10041
10052
10050
10046
10050
10055
10042
10006
9971
9971
10013
10069
10098
10093
10077
10080
10102
10117
10105
10071
10045
10048
10075
10104
10122
10132
10150
10182
10217
10235
10227
10202
10186
10198
10234
10271
10281
10260
10229
10220
10245
10290
10328
10344
10344
10345
10352
10357
10349
10329
10310
10304
10308
10307
10296
10279
10275
10295
10335
10373
10390
10380
10353
10324
10301
10279
10250
10217
10195
10198
10219
10234
10223
10183
10138
10114
10118
10136
10146
10139
10116
10083
10046
10007
9976
9966
9985
10026
10070
10094
10082
10032
9963
9909
9900
9945
10016
10069
10076
10041
9992
9953
9929
9922
9938
9984
10050
10101
10104
10059
10003
9977
9982
9987
9966
9934
9930
9976
10041
10071
10040
9974
9926
9925
9958
9989
10001
10006
10025
10062
10096
10102
10072
10019
9973
9954
9963
9980
9984
9971
9965
9988
10037
10075
10065
10005
9943
9934
9989
10066
10112
10109
10085
10078
10090
10090
10052
9988
9940
9939
9975
10013
10019
9989
9945
9915
9920
9962
10026
10079
10091
10056
10002
9972
9990
10040
10080
10082
10046
10001
9972
9967
9977
9991
10000
10003
10001
9999
10002
10009
10014
10010
10002
10001
10012
10021
10008
9973
9941
9942
9978
10018
10028
10005
9978
9979
10001
10009
9978
9923
9888
9905
9964
10025
10054
10051
10040
10038
10046
10048
10035
10011
9989
9979
9985
10002
10018
10017
9993
9955
9924
9921
9941
9962
9960
9937
9920
9934
9983
10040
10076
10077
10054
10030
10019
10013
9996
9956
9900
9853
9845
9887
9960
10028
10061
10061
10051
10052
10063
10065
10043
10003
9970
9965
9988
10018
10036
10036
10019
9993
9967
9949
9947
9960
9978
9988
9985
9973
9959
9944
9933
9932
9955
10001
10050
10073
10059
10028
10008
10011
10018
10009
9985
9967
9970
9982
9980
9958
9941
9955
10004
10055
10077
10063
10035
10017
10018
10034
10063
10102
10131
10127
10079
10014
9980
10005
10072
10133
10155
10144
10129
10121
10108
10079
10047
10033
10040
10040
10007
9950
9911
9919
9965
10008
10020
10009
9998
9996
9991
9974
9960
9970
10004
10032
10027
9996
9972
9981
10012
10030
10014
9982
9966
9983
10020
10051
10066
10069
10069
10064
10046
10013
9974
9938
9914
9905
9915
9946
9996
10055
10109
10145
10159
10156
10159
10203
10311
10478
10662
10810
10895
10929
10942
10953
10950
10908
10810
10658
10465
10254
10054
9903
9828
9822
9843
9849
9832
9820
9844
9897
9944
9958
9949
9950
9977
10011
10018
9992
9961
9964
10009
10068
10097
10074
10009
9936
9894
9904
9961
10036
10092
10103
10074
10031
10000
9995
10009
10032
10054
10069
10066
10040
9999
9969
9976
10021
10080
10120
10120
10089
10052
10036
10058
10109
10166
10194
10174
10116
10059
10036
10050
10075
10082
10070
10062
10077
10105
10116
10094
10051
10022
10027
10061
10101
10126
10134
10135
10141
10162
10194
10222
10228
10204
10166
10143
10149
10169
10174
10153
10134
10158
10236
10326
10369
10342
10285
10260
10294
10354
10376
10328
10235
10164
10169
10254
10372
10466
10498
10474
10432
10415
10439
10483
10504
10475
10402
10325
10284
10297
10347
10407
10450
10470
10472
10470
10472
10473
10457
10411
10340
10271
10236
10243
10269
10282
10268
10242
10224
10215
10198
10156
10102
10061
10051
10060
10064
10054
10048
10068
10112
10152
10162
10140
10107
10083
10068
10051
10033
10031
10054
10090
10110
10097
10065
10046
10061
10099
10130
10131
10103
10064
10026
9996
9977
9980
10012
10064
10105
10108
10069
10015
9982
9987
10018
10044
10043
10017
9985
9974
9993
10038
10088
10125
10136
10125
10104
10088
10084
10093
10110
10123
10124
10108
10079
10053
10046
10058
10077
10086
10082
10075
10078
10084
10072
10033
9986
9969
10004
10071
10124
10128
10093
10056
10052
10080
10118
10144
10150
10137
10109
10069
10032
10018
10033
10060
10071
10057
10036
10037
10066
10101
10113
10092
10056
10030
10024
10030
10039
10053
10076
10107
10132
10136
10114
10075
10033
10003
9993
10003
10024
10042
10049
10049
10051
10056
10054
10037
10013
10003
10023
10066
10105
10117
10101
10074
10049
10029
10016
10017
10039
10074
10100
10099
10076
10055
10049
10049
10040
10024
10024
10052
10090
10105
10083
10053
10049
10074
10095
10075
10022
9977
9972
9999
10030
10055
10088
10139
10183
10176
10107
10019
9970
9975
9997
9995
9975
9983
10043
10112
10124
10057
9967
9935
9985
10060
10083
10034
9965
9944
9987
10051
10081
10070
10048
10048
10072
10094
10099
10087
10076
10076
10085
10097
10102
10098
10086
10075
10075
10088
10097
10082
10038
9994
9987
10029
10092
10127
10109
10061
10026
10030
10054
10059
10025
9973
9942
9959
10016
10077
10107
10097
10067
10045
10052
10084
10119
10132
10121
10104
10105
10134
10170
10187
10172
10140
10117
10119
10142
10168
10182
10180
10162
10131
10093
10059
10044
10049
10063
10070
10063
10055
10057
10068
10075
10067
10049
10038
10044
10060
10070
10068
10064
10072
10091
10108
10108
10089
10060
10030
10003
9984
9983
10011
10063
10114
10133
10110
10062
10020
10003
10005
10012
10018
10029
10052
10079
10097
10099
10094
10099
10122
10161
10212
10283
10382
10505
10629
10731
10807
10878
10964
11056
11115
11101
11002
10841
10650
10450
10245
10044
9871
9759
9729
9770
9850
9934
9996
10027
10028
10010
9991
9991
10021
10067
10101
10097
10053
9995
9957
9960
9995
10035
10058
10057
10051
10057
10083
10115
10134
10135
10130
10135
10152
10166
10157
10118
10064
10020
10004
10020
10056
10092
10108
10091
10043
9992
9972
10006
10082
10161
10206
10205
10174
10134
10102
10084
10087
10113
10154
10186
10183
10147
10108
10099
10127
10167
10185
10170
10144
10134
10148
10175
10195
10201
10199
10195
10194
10197
10204
10210
10208
10196
10184
10190
10220
10256
10269
10244
10199
10170
10180
10216
10248
10256
10250
10255
10286
10335
10382
10413
10427
10431
10435
10441
10450
10459
10467
10474
10485
10501
10513
10511
10493
10475
10480
10517
10560
10567
10517
10429
10349
10315
10333
10379
10424
10450
10452
10426
10380
10330
10300
10300
10315
10318
10298
10265
10243
10237
10232
10212
10182
10167
10188
10236
10277
10276
10226
10150
10084
10049
10047
10063
10080
10093
10104
10116
10128
10130
10115
10086
10056
10036
10028
10025
10027
10048
10095
10155
10196
10190
10141
10081
10043
10031
10028
10024
10031
10069
10135
10193
10204
10165
10109
10079
10088
10115
10132
10134
10134
10140
10147
10143
10125
10107
10104
10114
10122
10116
10101
10094
10105
10127
10141
10133
10105
10073
10056
10061
10084
10111
10128
10131
10124
10112
10097
10084
10076
10078
10095
10119
10140
10146
10134
10112
10093
10091
10111
10143
10171
10177
10157
10120
10085
10068
10069
10079
10091
10100
10106
10105
10092
10075
10067
10080
10107
10128
10126
10107
10093
10095
10104
10099
10075
10049
10043
10064
10093
10108
10105
10097
10092
10087
10075
10061
10062
10087
10123
10140
10124
10091
10069
10071
10080
10074
10047
10022
10025
10061
10109
10140
10145
10131
10115
10096
10069
10032
10003
10005
10047
10107
10146
10138
10091
10043
10024
10040
10064
10069
10049
10020
10001
9994
9996
10006
10033
10084
10141
10176
10168
10127
10083
10059
10055
10055
10054
10060
10083
10116
10137
10129
10098
10067
10055
10059
10068
10069
10068
10073
10085
10100
10112
10116
10112
10100
10079
10057
10044
10051
10074
10099
10109
10095
10061
10024
10004
10016
10055
10098
10117
10099
10059
10027
10029
10064
10113
10155
10175
10171
10141
10088
10030
9997
10008
10058
10112
10139
10135
10121
10123
10141
10161
10171
10174
10178
10182
10173
10143
10103
10077
10079
10098
10110
10097
10066
10036
10021
10028
10053
10088
10120
10133
10120
10087
10055
10044
10058
10083
10101
10107
10104
10094
10078
10058
10043
10045
10064
10089
10106
10111
10110
10105
10094
10071
10046
10038
10055
10084
10094
10071
10031
10006
10010
10026
10026
10007
9997
10022
10078
10133
10165
10194
10269
10417
10610
10776
10859
10864
10845
10861
10921
10983
10986
10897
10729
10525
10336
10190
10092
10023
9963
9899
9837
9796
9794
9833
9900
9974
10030
10059
10059
10041
10022
10018
10039
10080
10130
10171
10188
10174
10132
10075
10023
9993
9993
10017
10050
10078
10092
10091
10081
10071
10071
10086
10111
10130
10126
10102
10074
10064
10082
10117
10149
10162
10155
10135
10113
10100
10107
10133
10162
10167
10130
10066
10012
10008
10060
10137
10198
10222
10214
10195
10175
10152
10121
10087
10066
10070
10096
10128
10148
10151
10145
10146
10167
10206
10250
10281
10289
10278
10264
10257
10260
10265
10267
10272
10288
10313
10333
10332
10305
10268
10245
10253
10289
10333
10365
10376
10372
10367
10369
10381
10396
10412
10429
10448
10464
10466
10450
10424
10405
10407
10427
10449
10462
10466
10468
10474
10480
10485
10485
10476
10453
10411
10357
10312
10293
10300
10315
10320
10318
10324
10342
10356
10341
10297
10248
10220
10214
10206
10175
10127
10085
10068
10070
10081
10099
10130
10167
10186
10164
10110
10058
10042
10063
10094
10109
10106
10098
10090
10076
10059
10054
10079
10121
10145
10122
10063
10010
10000
10033
10081
10118
10145
10167
10179
10165
10118
10057
10013
10002
10017
10038
10058
10076
10094
10104
10102
10094
10094
10102
10103
10088
10070
10079
10132
10207
10253
10232
10144
10032
9949
9932
9987
10086
10181
10227
10205
10136
10069
10044
10065
10106
10134
10138
10125
10107
10088
10074
10069
10070
10067
10048
10020
10011
10043
10105
10148
10134
10073
10023
10034
10098
10163
10180
10150
10110
10088
10077
10050
10007
9976
9988
10034
10078
10090
10077
10070
10084
10105
10107
10082
10053
10049
10076
10112
10136
10140
10133
10123
10107
10082
10054
10040
10053
10082
10106
10108
10094
10089
10109
10149
10181
10176
10124
10048
9987
9971
10006
10071
10130
10158
10150
10117
10078
10045
10023
10012
10010
10014
10022
10028
10033
10040
10056
10079
10100
10109
10105
10094
10089
10091
10093
10086
10072
10064
10075
10099
10121
10124
10108
10086
10076
10081
10090
10097
10100
10102
10100
10084
10049
10007
9982
9994
10039
10094
10131
10138
10122
10099
10083
10082
10094
10112
10120
10107
10075
10040
10023
10030
10048
10057
10049
10036
10038
10064
10099
10118
10112
10093
10088
10116
10166
10207
10210
10167
10103
10057
10054
10089
10129
10137
10106
10059
10039
10067
10131
10193
10221
10214
10194
10182
10184
10183
10165
10127
10083
10051
10042
10055
10081
10104
10113
10102
10081
10061
10046
10034
10018
10002
10002
10026
10065
10095
10096
10070
10035
10004
9982
9972
9984
10031
10103
10160
10159
10096
10013
9967
9976
10010
10027
10022
10025
10066
10130
10172
10163
10118
10082
10091
10142
10211
10287
10370
10469
10578
10682
10775
10855
10918
10952
10948
10912
10858
10785
10671
10502
10296
10106
9977
9911
9876
9848
9839
9873
9944
10009
10026
10000
9984
10022
10102
10168
10168
10101
10012
9948
9929
9949
9996
10062
10133
10185
10196
10165
10114
10073
10060
10077
10109
10133
10125
10081
10023
9998
10034
10120
10203
10229
10189
10120
10069
10057
10069
10082
10090
10096
10098
10084
10044
9996
9970
9993
10062
10147
10213
10242
10237
10210
10176
10140
10100
10057
10019
10002
10019
10067
10122
10161
10177
10184
10197
10215
10224
10223
10224
10245
10283
10308
10299
10258
10215
10194
10196
10208
10225
10254
10294
10317
10295
10228
10159
10144
10202
10302
10391
10437
10445
10433
10411
10376
10334
10298
10285
10300
10335
10382
10432
10471
10484
10464
10428
10406
10417
10449
10472
10469
10452
10445
10457
10476
10487
10490
10495
10503
10499
10461
10391
10317
10269
10253
10252
10244
10228
10226
10250
10288
10305
10270
10187
10099
10054
10071
10123
10161
10153
10114
10079
10075
10093
10111
10118
10122
10127
10117
10073
10011
9978
10017
10115
10204
10222
10171
10113
10099
10120
10129
10102
10070
10078
10124
10155
10124
10053
10008
10035
10100
10130
10086
10009
9972
10007
10080
10127
10121
10084
10052
10042
10043
10050
10068
10101
10136
10151
10140
10118
10110
10117
10122
10113
10095
10094
10118
10150
10158
10127
10077
10051
10076
10144
10210
10224
10172
10085
10018
10010
10049
10092
10099
10074
10049
10056
10094
10137
10159
10159
10151
10140
10116
10075
10030
10005
10014
10044
10069
10080
10085
10102
10130
10155
10160
10150
10144
10152
10162
10150
10104
10038
9991
9992
10044
10117
10169
10172
10134
10087
10060
10060
10072
10077
10074
10075
10087
10100
10095
10067
10034
10028
10061
10115
10152
10148
10108
10057
10018
10001
10002
10018
10050
10093
10134
10151
10137
10104
10077
10073
10086
10093
10077
10046
10025
10038
10083
10132
10153
10137
10102
10075
10072
10083
10091
10089
10080
10075
10073
10064
10040
10012
10000
10023
10072
10116
10123
10091
10048
10028
10042
10068
10072
10049
10024
10028
10065
10108
10125
10115
10104
10108
10111
10083
10016
9948
9932
9986
10071
10126
10120
10078
10045
10051
10083
10110
10113
10099
10086
10087
10101
10115
10115
10096
10065
10039
10034
10050
10075
10096
10111
10133
10165
10190
10185
10146
10097
10072
10083
10112
10129
10120
10096
10077
10074
10088
10114
10139
10149
10125
10074
10026
10017
10054
10101
10115
10082
10031
10000
10000
10013
10023
10036
10060
10088
10092
10062
10021
10013
10049
10095
10107
10077
10040
10032
10050
10061
10047
10025
10028
10060
10086
10073
10023
9975
9960
9976
10000
10015
10028
10051
10087
10131
10184
10259
10360
10468
10552
10597
10622
10666
10750
10865
10974
11037
11027
10935
10772
10569
10364
10192
10068
9986
9931
9890
9856
9826
9807
9809
9841
9896
9954
9995
10018
10038
10071
10106
10121
10104
10076
10065
10078
10093
10083
10052
10036
10061
10112
10144
10125
10070
10029
10032
10069
10096
10086
10049
10022
10029
10065
10101
10116
10112
10110
10127
10154
10167
10150
10110
10074
10065
10081
10104
10115
10114
10118
10132
10145
10142
10120
10101
10107
10139
10173
10183
10164
10136
10128
10150
10185
10209
10202
10170
10134
10122
10147
10197
10244
10258
10233
10187
10146
10126
10127
10143
10172
10214
10258
10288
10287
10261
10229
10214
10224
10253
10285
10313
10333
10346
10359
10376
10396
10408
10404
10387
10374
10379
10397
10409
10410
10420
10464
10536
10594
10592
10530
10454
10412
10408
10408
10385
10358
10363
10414
10478
10508
10490
10450
10419
10405
10392
10368
10340
10313
10286
10252
10223
10222
10253
10289
10290
10244
10181
10145
10145
10158
10156
10142
10133
10139
10143
10132
10113
10110
10130
10154
10159
10145
10131
10126
10118
10091
10055
10033
10038
10053
10056
10049
10058
10091
10119
10107
10059
10027
10052
10118
10162
10145
10092
10062
10075
10097
10086
10050
10040
10080
10138
10153
10114
10073
10089
10157
10211
10190
10101
10009
9971
9997
10052
10102
10134
10147
10140
10114
10077
10047
10030
10021
10020
10033
10068
10110
10135
10130
10115
10114
10132
10141
10121
10086
10073
10099
10137
10146
10113
10069
10042
10037
10035
10038
10066
10126
10178
10163
10067
9949
9894
9938
10036
10117
10147
10149
10154
10160
10143
10096
10049
10034
10051
10065
10055
10031
10023
10040
10064
10074
10071
10071
10084
10098
10102
10098
10094
10090
10073
10035
9993
9973
9985
10011
10028
10034
10046
10075
10109
10122
10104
10071
10045
10030
10021
10012
10013
10030
10058
10078
10079
10065
10048
10035
10029
10037
10064
10101
10119
10088
10014
9944
9935
10002
10101
10169
10172
10125
10064
10017
9992
9986
9999
10027
10057
10074
10076
10075
10087
10113
10134
10133
10105
10062
10020
9988
9974
9982
10011
10053
10089
10107
10107
10096
10084
10072
10062
10058
10066
10086
10111
10129
10130
10115
10090
10066
10052
10051
10056
10057
10051
10047
10058
10081
10100
10098
10084
10079
10098
10122
10110
10047
9966
9930
9976
10082
10179
10216
10193
10154
10138
10151
10171
10176
10165
10148
10131
10111
10091
10076
10076
10086
10094
10090
10077
10065
10060
10052
10031
10002
9985
10000
10048
10106
10142
10141
10113
10082
10066
10065
10069
10068
10056
10033
10002
9975
9969
10000
10063
10122
10140
10105
10048
10013
10020
10051
10073
10073
10062
10059
10060
10048
10020
10002
10025
10094
10178
10241
10270
10288
10325
10392
10484
10595
10718
10839
10933
10977
10973
10943
10898
10823
10686
10484
10255
10057
9926
9855
9817
9800
9809
9847
9896
9933
9955
9980
10024
10076
10103
10087
10045
10016
10026
10068
10107
10118
10102
10079
10069
10075
10079
10063
10021
9976
9963
10001
10074
10137
10149
10107
10050
10021
10029
10054
10068
10069
10070
10072
10061
10029
9998
10005
10067
10151
10198
10175
10102
10033
10007
10023
10053
10076
10093
10115
10147
10184
10213
10227
10222
10196
10156
10117
10094
10087
10085
10076
10067
10077
10116
10172
10221
10244
10242
10225
10204
10186
10173
10163
10155
10144
10133
10137
10167
10217
10255
10252
10215
10190
10220
10304
10388
10416
10384
10336
10327
10369
10423
10446
10427
10389
10362
10356
10364
10380
10405
10440
10476
10500
10505
10499
10490
10479
10462
10444
10438
10450
10467
10461
10416
10349
10298
10289
10315
10347
10359
10353
10347
10347
10340
10304
10240
10174
10139
10146
10178
10208
10222
10222
10216
10207
10192
10178
10179
10205
10242
10257
10226
10154
10077
10032
10031
10058
10087
10103
10103
10090
10069
10042
10017
10002
10001
10011
10024
10031
10028
10012
9986
9962
9960
9991
10049
10108
10139
10128
10089
10048
10028
10034
10052
10071
10085
10095
10107
10119
10122
10107
10075
10042
10026
10041
10073
10099
10100
10079
10058
10057
10077
10102
10116
10119
10120
10120
10110
10082
10042
10010
10003
10018
10034
10037
10034
10044
10077
10122
10152
10151
10123
10094
10082
10086
10090
10080
10059
10041
10037
10049
10068
10086
10102
10114
10118
10105
10075
10044
10028
10034
10055
10072
10079
10079
10080
10079
10070
10050
10026
10011
10011
10029
10064
10114
10167
10196
10175
10107
10028
9986
9999
10037
10055
10029
9982
9955
9968
10009
10052
10082
10101
10110
10103
10080
10055
10047
10056
10061
10043
10008
9988
9998
10020
10021
9988
9953
9958
10011
10080
10118
10111
10081
10056
10046
10042
10037
10035
10040
10045
10038
10018
9999
9994
9999
9997
9986
9979
9997
10037
10076
10089
10078
10068
10084
10125
10172
10198
10191
10150
10087
10020
9974
9965
9993
10034
10059
10053
10027
10000
9986
9981
9978
9973
9967
9968
9980
10007
10041
10068
10074
10057
10035
10030
10049
10076
10087
10077
10065
10068
10084
10089
10069
10038
10030
10059
10107
10134
10117
10068
10025
10022
10065
10130
10180
10186
10143
10078
10031
10030
10066
10102
10108
10081
10051
10042
10056
10072
10078
10080
10091
10106
10110
10091
10061
10038
10025
10012
9998
10004
10053
10127
10170
10136
10039
9951
9939
9995
10049
10041
9985
9948
9974
10037
10072
10048
9999
9985
10019
10054
10039
9974
9916
9916
9968
10022
10040
10031
10034
10070
10124
10168
10203
10252
10335
10440
10540
10622
10702
10798
10902
10988
11028
11020
10967
10867
10704
10483
10244
10051
9945
9919
9925
9922
9901
9873
9850
9833
9824
9836
9875
9929
9969
9975
9960
9957
9985
10027
10053
10052
10038
10035
10042
10042
10028
10017
10029
10060
10081
10066
10026
9999
10010
10049
10086
10100
10095
10080
10049
9997
9936
9912
9960
10070
10179
10221
10178
10093
10028
10016
10043
10073
10081
10068
10049
10042
10055
10084
10112
10120
10103
10073
10056
10067
10098
10124
10130
10115
10094
10078
10070
10070
10081
10106
10142
10180
10210
10224
10219
10190
10144
10104
10097
10132
10182
10208
10188
10147
10133
10173
10250
10319
10352
10351
10340
10329
10315
10292
10269
10264
10283
10315
10343
10360
10373
10387
10402
10418
10434
10448
10452
10437
10408
10388
10395
10423
10444
10434
10398
10370
10370
10389
10398
10382
10352
10334
10338
10351
10359
10356
10341
10311
10261
10205
10172
10185
10230
10262
10249
10202
10167
10174
10203
10205
10160
10093
10056
10065
10093
10096
10066
10033
10035
10077
10128
10150
10131
10081
10024
9977
9950
9952
9984
10035
10083
10105
10096
10066
10033
10011
10009
10025
10052
10082
10105
10118
10123
10118
10104
10081
10054
10032
10019
10012
10004
9997
9999
10017
10046
10073
10088
10092
10094
10100
10110
10122
10132
10138
10139
10130
10112
10091
10073
10054
10030
10000
9970
9952
9951
9964
9986
10018
10057
10095
10114
10109
10090
10080
10087
10096
10091
10073
10065
10087
10127
10155
10145
10106
10071
10059
10065
10070
10063
10051
10046
10048
10050
10050
10056
10070
10077
10060
10018
9973
9949
9953
9970
9987
10008
10043
10088
10118
10114
10078
10036
10012
10009
10014
10023
10039
10058
10067
10052
10028
10032
10085
10160
10196
10154
10056
9973
9962
10020
10094
10133
10128
10106
10091
10085
10074
10051
10023
10001
9984
9969
9958
9959
9976
10001
10019
10027
10030
10034
10039
10036
10025
10014
10013
10024
10037
10047
10059
10075
10087
10078
10043
10000
9983
10012
10074
10131
10150
10130
10091
10055
10031
10015
10007
10014
10036
10061
10068
10046
10012
9999
10027
10085
10132
10132
10080
10009
9967
9975
10019
10060
10070
10047
10018
10009
10027
10061
10094
10115
10121
10109
10078
10036
10001
9993
10020
10067
10112
10138
10142
10135
10121
10105
10092
10092
10117
10158
10192
10193
10161
10119
10090
10081
10073
10047
10009
9981
9981
10005
10029
10040
10046
10064
10094
10109
10084
10020
9953
9926
9950
9996
10023
10012
9976
9949
9954
9995
10054
10110
10143
10142
10106
10054
10010
9994
10002
10014
10015
10010
10017
10045
10079
10091
10069
10030
10004
10007
10029
10055
10087
10152
10269
10427
10577
10679
10727
10758
10810
10894
10981
11028
11010
10925
10794
10634
10460
10284
10119
9978
9871
9800
9768
9768
9791
9820
9844
9861
9879
9909
9950
9997
10038
10069
10082
10074
10046
10014
10006
10036
10092
10134
10125
10067
9999
9969
9996
10057
10114
10142
10142
10127
10107
10079
10044
10015
10003
10013
10034
10054
10069
10082
10090
10089
10074
10055
10050
10065
10090
10104
10097
10080
10074
10089
10114
10128
10118
10092
10065
10053
10058
10077
10106
10139
10168
10184
10183
10173
10166
10170
10179
10183
10174
10161
10159
10177
10208
10230
10224
10193
10156
10140
10156
10198
10246
10281
10296
10294
10285
10279
10282
10290
10295
10281
10247
10210
10202
10245
10328
10407
10438
10413
10371
10363
10410
10483
10526
10506
10439
10372
10344
10362
10401
10436
10461
10479
10493
10496
10482
10458
10441
10444
10461
10469
10445
10385
10314
10265
10263
10309
10381
10444
10467
10438
10365
10275
10195
10145
10125
10125
10130
10137
10147
10161
10173
10172
10155
10134
10127
10141
10164
10168
10141
10091
10049
10034
10044
10055
10046
10025
10014
10030
10067
10096
10096
10070
10040
10027
10037
10059
10085
10116
10154
10187
10199
10178
10135
10098
10089
10104
10119
10114
10087
10053
10031
10028
10037
10055
10083
10122
10167
10208
10232
10235
10220
10190
10150
10108
10080
10077
10095
10117
10120
10100
10071
10059
10081
10132
10189
10222
10213
10163
10092
10032
10012
10040
10099
10157
10187
10186
10170
10155
10148
10140
10119
10089
10059
10042
10040
10047
10057
10069
10085
10103
10113
10109
10095
10088
10101
10132
10160
10160
10129
10086
10061
10067
10088
10099
10088
10066
10054
10064
10087
10109
10128
10152
10185
10212
10208
10163
10094
10033
10008
10022
10058
10097
10119
10115
10083
10039
10006
10009
10050
10107
10145
10149
10128
10107
10101
10105
10105
10093
10074
10059
10054
10061
10074
10093
10111
10120
10111
10086
10056
10038
10044
10072
10104
10121
10113
10091
10080
10097
10138
10173
10171
10128
10069
10026
10009
10008
10011
10025
10069
10141
10206
10223
10182
10122
10098
10131
10187
10213
10181
10111
10050
10035
10064
10108
10132
10117
10074
10033
10032
10082
10157
10207
10195
10132
10067
10044
10067
10102
10115
10102
10088
10089
10102
10109
10109
10118
10147
10186
10206
10193
10159
10132
10133
10154
10176
10184
10176
10161
10146
10130
10116
10106
10105
10114
10128
10140
10140
10126
10101
10078
10067
10065
10057
10034
10006
10002
10041
10107
10156
10151
10094
10022
9976
9970
9984
10000
10012
10030
10060
10095
10118
10123
10112
10092
10070
10048
10036
10044
10081
10143
10219
10296
10364
10420
10470
10525
10597
10692
10799
10899
10973
11011
11010
10968
10883
10762
10618
10469
10318
10158
9987
9826
9717
9692
9748
9845
9930
9975
9989
10003
10038
10087
10130
10146
10131
10100
10073
10060
10059
10067
10085
10117
10163
10203
10214
10187
10139
10097
10077
10069
10059
10050
10067
10122
10190
10224
10200
10145
10119
10152
10212
10233
10174
10066
9978
9963
10015
10093
10160
10208
10242
10258
10240
10179
10098
10039
10031
10072
10133
10180
10196
10188
10173
10162
10160
10159
10160
10165
10182
10211
10241
10259
10263
10269
10292
10328
10350
10332
10273
10204
10159
10146
10148
10149
10152
10173
10221
10279
10319
10329
10322
10320
10330
10345
10352
10353
10357
10369
10388
10410
10438
10472
10502
10508
10477
10425
10382
10378
10413
10466
10513
10542
10553
10552
10546
10542
10549
10568
10580
10562
10509
10442
10396
10396
10435
10487
10528
10544
10529
10476
10389
10293
10232
10238
10300
10369
10391
10355
10292
10246
10229
10223
10206
10182
10173
10192
10223
10235
10220
10198
10196
10217
10236
10229
10196
10157
10132
10119
10107
10093
10091
10112
10142
10157
10139
10100
10068
10063
10078
10096
10106
10109
10113
10119
10125
10130
10137
10143
10142
10126
10100
10082
10089
10119
10155
10178
10185
10183
10177
10166
10152
10145
10154
10180
10208
10220
10213
10199
10189
10187
10186
10182
10178
10179
10183
10181
10169
10153
10141
10137
10140
10147
10159
10175
10188
10185
10166
10140
10125
10127
10137
10139
10134
10131
10141
10162
10174
10162
10125
10078
10046
10042
10067
10110
10154
10186
10196
10186
10163
10137
10117
10111
10124
10152
10184
10207
10215
10214
10216
10224
10227
10215
10183
10141
10103
10074
10056
10056
10083
10136
10198
10234
10222
10167
10100
10057
10060
10107
10179
10248
10281
10255
10171
10069
10002
10001
10054
10117
10147
10138
10117
10110
10122
10138
10137
10119
10101
10103
10130
10170
10198
10197
10170
10140
10134
10158
10188
10189
10138
10053
9975
9947
9977
10043
10110
10151
10162
10154
10145
10148
10166
10188
10194
10174
10133
10095
10077
10084
10104
10126
10145
10163
10181
10193
10194
10186
10179
10178
10182
10186
10186
10180
10168
10151
10132
10119
10115
10114
10107
10089
10070
10066
10085
10113
10131
10133
10132
10146
10183
10231
10267
10274
10250
10213
10181
10172
10186
10206
10211
10191
10160
10147
10167
10203
10222
10198
10137
10067
10018
10002
10016
10057
10119
10186
10227
10220
10171
10119
10102
10125
10159
10164
10131
10083
10054
10057
10075
10082
10068
10044
10035
10057
10105
10152
10175
10170
10156
10157
10180
10204
10199
10160
10115
10100
10126
10169
10199
10215
10254
10350
10502
10666
10798
10887
10956
11027
11094
11122
11086
10987
10857
10722
10589
10449
10295
10132
9981
9866
9806
9804
9849
9918
9985
10037
10073
10100
10124
10144
10157
10160
10157
10151
10141
10133
10129
10134
10143
10146
10141
10134
10138
10154
10165
10152
10111
10062
10037
10052
10092
10128
10141
10134
10129
10143
10174
10205
10219
10210
10185
10163
10156
10166
10182
10193
10195
10195
10203
10215
10215
10193
10158
10141
10166
10226
10284
10298
10262
10205
10166
10161
10172
10177
10171
10172
10193
10229
10256
10262
10254
10244
10235
10219
10195
10181
10196
10239
10279
10290
10273
10261
10280
10321
10345
10328
10290
10276
10315
10386
10442
10455
10435
10418
10423
10444
10460
10464
10465
10471
10479
10480
10473
10470
10479
10498
10518
10527
10523
10509
10490
10480
10494
10537
10593
10628
10619
10569
10513
10481
10475
10473
10462
10450
10453
10466
10460
10420
10364
10333
10347
10377
10377
10331
10275
10253
10274
10297
10281
10231
10193
10205
10250
10276
10251
10191
10144
10142
10173
10204
10216
10209
10195
10178
10158
10147
10159
10194
10227
10230
10200
10165
10153
10162
10166
10145
10112
10100
10126
10169
10195
10192
10178
10178
10191
10193
10169
10133
10122
10155
10212
10251
10247
10209
10173
10165
10182
10202
10205
10188
10164
10148
10147
10159
10178
10197
10210
10212
10203
10188
10180
10188
10213
10240
10246
10224
10187
10163
10170
10199
10219
10209
10176
10145
10139
10159
10188
10214
10236
10254
10260
10240
10193
10141
10111
10114
10132
10143
10137
10124
10120
10128
10142
10159
10178
10192
10187
10154
10108
10086
10116
10188
10261
10296
10284
10250
10221
10208
10206
10213
10234
10264
10283
10267
10207
10130
10074
10060
10083
10125
10168
10203
10223
10215
10179
10135
10109
10117
10147
10169
10161
10132
10110
10119
10158
10205
10232
10226
10199
10177
10180
10209
10242
10252
10233
10205
10193
10204
10224
10232
10226
10217
10218
10226
10226
10208
10178
10148
10117
10079
10039
10017
10035
10092
10156
10190
10179
10140
10105
10096
10121
10170
10222
10251
10240
10195
10149
10140
10177
10231
10263
10256
10230
10214
10215
10223
10226
10235
10260
10285
10275
10210
10118
10061
10084
10170
10260
10305
10300
10276
10264
10265
10268
10260
10243
10220
10192
10164
10146
10148
10164
10174
10167
10147
10138
10151
10172
10180
10170
10157
10165
10191
10215
10214
10190
10165
10160
10177
10201
10220
10230
10234
10234
10228
10211
10187
10161
10145
10145
10160
10180
10190
10180
10155
10130
10120
10129
10153
10177
10190
10183
10158
10129
10125
10171
10267
10381
10471
10523
10561
10625
10730
10852
10954
11019
11062
11101
11125
11104
11012
10855
10662
10465
10282
10129
10022
9974
9969
9977
9975
9973
10002
10079
10176
10246
10257
10219
10170
10135
10117
10109
10118
10159
10228
10291
10307
10261
10187
10136
10140
10184
10227
10237
10215
10189
10181
10193
10203
10189
10153
10120
10122
10170
10241
10298
10319
10309
10293
10284
10274
10247
10205
10170
10170
10203
10242
10260
10250
10232
10231
10247
10263
10262
10250
10245
10260
10285
10300
10292
10270
10257
10263
10283
10299
10304
10307
10322
10347
10365
10357
10321
10275
10247
10248
10269
10294
10315
10335
10363
10392
10413
10419
10415
10410
10406
10403
10399
10402
10420
10450
10481
10501
10509
10511
10511
10503
10483
10460
10455
10477
10515
10543
10548
10542
10548
10576
10606
10613
10589
10555
10542
10566
10616
10662
10676
10648
10590
10527
10488
10486
10513
10545
10557
10545
10519
10488
10457
10424
10393
10373
10361
10343
10306
10260
10236
10256
10309
10351
10351
10316
10285
10285
10303
10303
10270
10225
10204
10220
10247
10254
10234
10208
10200
10213
10235
10255
10271
10279
10273
10245
10209
10187
10188
10197
10194
10180
10179
10214
10266
10290
10263
10212
10195
10237
10299
10317
10267
10190
10157
10195
10266
10313
10307
10272
10242
10229
10218
10200
10190
10209
10255
10303
10328
10331
10329
10329
10317
10273
10203
10147
10143
10194
10260
10295
10285
10253
10236
10250
10279
10297
10291
10273
10265
10275
10288
10284
10254
10216
10198
10213
10245
10267
10263
10248
10243
10257
10271
10265
10234
10197
10173
10171
10186
10215
10258
10305
10327
10302
10233
10161
10130
10152
10200
10237
10253
10260
10270
10273
10257
10232
10226
10253
10291
10302
10275
10241
10241
10274
10300
10278
10216
10159
10141
10155
10171
10175
10179
10197
10216
10214
10194
10193
10235
10296
10316
10262
10171
10119
10142
10208
10250
10246
10226
10237
10277
10305
10292
10255
10237
10250
10267
10252
10214
10191
10206
10238
10246
10223
10206
10235
10303
10355
10339
10256
10157
10104
10119
10180
10243
10270
10246
10182
10115
10086
10112
10172
10223
10238
10232
10239
10273
10306
10298
10239
10168
10134
10155
10209
10255
10276
10282
10293
10320
10356
10387
10399
10383
10340
10284
10237
10214
10209
10208
10201
10196
10205
10224
10233
10221
10202
10203
10234
10268
10260
10200
10124
10084
10101
10146
10172
10163
10145
10153
10191
10230
10240
10224
10211
10223
10250
10260
10238
10201
10184
10202
10239
10258
10242
10206
10180
10180
10195
10199
10189
10187
10221
10298
10391
10468
10522
10572
10648
10753
10866
10960
11027
11076
11111
11111
11047
10909
10725
10542
10397
10293
10211
10134
10066
10019
10003
10015
10048
10100
10164
10222
10251
10235
10189
10152
10155
10195
10235
10240
10207
10171
10171
10214
10270
10300
10290
10257
10230
10219
10213
10200
10180
10170
10182
10212
10243
10254
10238
10200
10161
10141
10160
10215
10282
10323
10311
10255
10194
10170
10199
10265
10333
10373
10367
10318
10243
10176
10150
10178
10243
10310
10349
10360
10355
10341
10311
10258
10199
10168
10183
10225
10256
10251
10229
10226
10267
10334
10393
10421
10418
10394
10357
10312
10276
10272
10309
10362
10395
10389
10362
10355
10388
10444
10485
10490
10469
10446
10437
10440
10442
10442
10451
10481
10528
10577
10610
10621
10617
10610
10605
10593
10564
10520
10484
10483
10522
10578
10618
10626
10622
10632
10655
10661
10617
10528
10438
10395
10411
10457
10496
10512
10507
10492
10471
10450
10439
10442
10444
10417
10349
10267
10215
10217
10251
10280
10282
10274
10278
10287
10274
10223
10164
10145
10188
10260
10306
10302
10267
10240
10235
10230
10204
10161
10129
10132
10163
10198
10219
10230
10241
10256
10269
10274
10274
10270
10261
10241
10212
10188
10180
10186
10195
10198
10204
10225
10261
10298
10313
10301
10274
10246
10220
10190
10159
10146
10170
10227
10282
10299
10268
10221
10198
10214
10242
10247
10217
10179
10168
10190
10216
10217
10193
10179
10208
10271
10323
10323
10279
10235
10231
10268
10312
10330
10324
10313
10310
10298
10258
10202
10165
10178
10228
10265
10251
10194
10140
10131
10167
10215
10246
10262
10272
10274
10248
10188
10125
10107
10156
10235
10280
10260
10201
10160
10167
10202
10226
10224
10219
10236
10265
10275
10250
10211
10197
10222
10258
10266
10240
10209
10206
10230
10254
10254
10236
10217
10204
10188
10163
10144
10162
10223
10296
10334
10314
10254
10194
10163
10167
10195
10232
10261
10266
10238
10186
10138
10120
10130
10150
10164
10178
10208
10256
10298
10308
10279
10235
10207
10206
10223
10239
10248
10249
10240
10218
10190
10170
10175
10202
10233
10249
10250
10251
10261
10277
10288
10292
10296
10301
10302
10287
10260
10238
10240
10264
10284
10278
10249
10224
10228
10263
10307
10333
10331
10308
10281
10258
10242
10233
10230
10229
10225
10214
10203
10207
10232
10265
10274
10243
10189
10150
10156
10197
10229
10224
10194
10179
10206
10260
10298
10296
10267
10240
10228
10214
10187
10160
10163
10202
10244
10249
10214
10178
10182
10229
10279
10295
10273
10233
10191
10151
10126
10146
10238
10383
10522
10607
10650
10713
10839
11001
11125
11163
11131
11085
11052
11011
10924
10784
10621
10464
10318
10173
10038
9945
9916
9942
9996
10060
10137
10223
10291
10302
10253
10182
10137
10139
10168
10198
10221
10244
10262
10262
10239
10216
10221
10244
10247
10200
10128
10086
10109
10173
10222
10232
10229
10252
10301
10336
10328
10289
10262
10266
10283
10283
10264
10250
10258
10278
10287
10278
10268
10266
10259
10232
10199
10202
10262
10346
10384
10339
10242
10170
10175
10244
10317
10351
10346
10332
10328
10330
10323
10298
10261
10223
10192
10182
10203
10253
10314
10358
10370
10356
10337
10331
10346
10373
10402
10422
10425
10409
10386
10369
10372
10397
10438
10482
10517
10532
10521
10492
10470
10481
10528
10583
10607
10587
10547
10530
10554
10604
10646
10664
10660
10647
10626
10589
10543
10509
10510
10542
10578
10592
10581
10570
10581
10615
10640
10625
10566
10495
10451
10453
10481
10494
10467
10414
10372
10368
10390
10403
10385
10350
10329
10331
10334
10307
10253
10207
10205
10251
10309
10345
10353
10347
10337
10315
10274
10228
10208
10226
10257
10257
10213
10153
10125
10146
10196
10236
10248
10245
10249
10266
10282
10283
10269
10256
10253
10261
10272
10278
10279
10273
10259
10236
10208
10187
10188
10215
10258
10294
10305
10293
10280
10284
10296
10290
10244
10173
10120
10126
10192
10279
10341
10357
10332
10281
10219
10161
10133
10152
10206
10255
10265
10241
10217
10223
10250
10266
10257
10243
10259
10303
10336
10323
10268
10214
10195
10202
10205
10190
10178
10195
10239
10276
10280
10262
10255
10275
10301
10297
10249
10181
10132
10128
10164
10218
10265
10291
10293
10275
10249
10231
10225
10229
10237
10244
10245
10237
10219
10202
10204
10235
10276
10293
10265
10208
10165
10166
10201
10234
10236
10214
10193
10190
10198
10201
10194
10189
10195
10214
10235
10250
10254
10239
10202
10157
10131
10146
10193
10236
10242
10214
10190
10201
10243
10281
10289
10277
10273
10289
10307
10295
10245
10179
10133
10126
10154
10200
10243
10272
10279
10268
10248
10235
10231
10230
10223
10211
10203
10206
10213
10214
10208
10205
10216
10238
10253
10252
10238
10225
10225
10238
10260
10279
10285
10267
10225
10175
10146
10156
10196
10241
10271
10286
10301
10319
10324
10302
10263
10235
10236
10256
10269
10265
10256
10262
10279
10281
10253
10207
10178
10185
10216
10241
10243
10233
10228
10234
10236
10222
10197
10183
10194
10225
10260
10285
10293
10282
10253
10209
10169
10152
10168
10206
10240
10250
10233
10203
10176
10164
10170
10188
10212
10229
10231
10212
10176
10136
10107
10106
10146
10224
10324
10421
10498
10556
10616
10701
10815
10936
11040
11114
11161
11191
11195
11151
11033
10846
10624
10414
10249
10130
10041
9970
9923
9916
9952
10014
10072
10109
10129
10151
10187
10230
10259
10264
10250
10235
10230
10232
10233
10223
10202
10177
10157
10148
10152
10168
10186
10199
10202
10199
10198
10208
10231
10263
10292
10301
10285
10248
10210
10194
10211
10248
10281
10292
10282
10267
10260
10259
10252
10232
10204
10182
10174
10182
10200
10227
10260
10285
10287
10257
10213
10185
10202
10260
10332
10385
10400
10380
10345
10312
10291
10285
10292
10300
10300
10287
10268
10261
10278
10321
10375
10417
10428
10406
10363
10323
10305
10318
10353
10392
10420
10432
10434
10435
10444
10462
10486
10511
10531
10539
10537
10531
10530
10539
10556
10575
10590
10596
10591
10576
10557
10549
10565
10599
10634
10645
10624
10586
10553
10538
10537
10540
10539
10539
10540
10536
10521
10495
10474
10471
10489
10512
10516
10491
10440
10379
10326
10297
10295
10312
10331
10334
10318
10294
10279
10284
10304
10320
10317
10284
10231
10177
10149
10163
10208
10251
10259
10225
10182
10168
10197
10240
10254
10229
10191
10176
10192
10209
10200
10169
10152
10178
10240
10298
10321
10308
10274
10236
10192
10147
10116
10117
10149
10185
10198
10189
10188
10221
10279
10320
10307
10243
10169
10132
10153
10212
10272
10301
10296
10273
10256
10256
10262
10252
10216
10172
10155
10183
10235
10263
10228
10143
10067
10056
10119
10211
10275
10282
10252
10225
10227
10250
10272
10274
10255
10230
10214
10212
10221
10227
10220
10200
10177
10167
10176
10200
10226
10240
10236
10219
10199
10186
10183
10185
10184
10175
10160
10148
10149
10166
10186
10196
10188
10169
10155
10159
10181
10210
10231
10236
10224
10203
10178
10155
10138
10131
10137
10158
10185
10206
10208
10191
10164
10144
10142
10159
10189
10221
10249
10263
10253
10218
10173
10145
10151
10182
10207
10200
10165
10135
10142
10184
10231
10250
10237
10215
10204
10203
10193
10167
10145
10157
10208
10264
10277
10226
10139
10070
10056
10090
10133
10153
10149
10139
10140
10147
10149
10146
10153
10183
10227
10258
10255
10229
10211
10222
10253
10274
10270
10250
10239
10240
10226
10171
10081
10007
10010
10105
10244
10348
10364
10299
10208
10150
10151
10196
10246
10271
10263
10232
10197
10176
10181
10211
10254
10288
10293
10267
10228
10205
10212
10233
10236
10197
10129
10074
10066
10104
10155
10186
10191
10188
10190
10187
10161
10115
10080
10092
10154
10231
10275
10266
10218
10167
10134
10122
10119
10123
10135
10154
10174
10180
10167
10139
10110
10093
10098
10119
10142
10156
10160
10171
10212
10288
10387
10485
10572
10653
10739
10831
10921
11002
11077
11141
11168
11116
10966
10750
10536
10382
10293
10232
10158
10072
10003
9979
9994
10017
10025
10018
10017
10038
10081
10132
10174
10193
10180
10144
10110
10109
10148
10202
10230
10212
10166
10135
10143
10173
10188
10168
10124
10092
10094
10128
10178
10225
10259
10269
10249
10209
10174
10170
10199
10229
10224
10180
10134
10130
10179
10244
10274
10255
10219
10211
10241
10269
10245
10164
10072
10034
10074
10161
10241
10284
10300
10311
10323
10320
10289
10245
10216
10218
10233
10234
10212
10189
10186
10204
10221
10225
10232
10263
10316
10353
10341
10286
10241
10251
10316
10386
10414
10400
10380
10385
10409
10428
10431
10433
10451
10475
10477
10441
10392
10375
10410
10472
10515
10519
10504
10504
10531
10562
10570
10548
10518
10505
10515
10532
10540
10535
10528
10531
10545
10555
10545
10509
10460
10423
10419
10448
10481
10485
10445
10380
10325
10304
10308
10313
10305
10290
10279
10269
10245
10204
10171
10180
10240
10312
10337
10290
10205
10145
10150
10197
10234
10224
10183
10150
10148
10159
10153
10124
10101
10110
10151
10191
10202
10186
10165
10153
10144
10130
10119
10136
10184
10235
10246
10201
10136
10104
10128
10179
10209
10194
10153
10119
10110
10116
10128
10150
10189
10235
10261
10247
10202
10160
10148
10162
10182
10188
10177
10156
10131
10109
10100
10119
10165
10215
10242
10240
10227
10226
10236
10239
10223
10196
10178
10173
10166
10141
10112
10108
10146
10208
10259
10274
10258
10229
10195
10159
10128
10121
10151
10204
10244
10247
10219
10190
10179
10181
10182
10175
10167
10157
10135
10097
10067
10076
10132
10196
10216
10176
10116
10093
10124
10177
10204
10199
10190
10204
10226
10215
10153
10074
10038
10081
10177
10258
10268
10200
10102
10040
10052
10125
10208
10246
10225
10171
10130
10123
10138
10151
10154
10163
10185
10204
10187
10127
10063
10045
10091
10167
10219
10221
10192
10167
10157
10152
10146
10150
10175
10210
10219
10181
10113
10062
10062
10103
10147
10162
10149
10132
10130
10143
10157
10161
10152
10133
10119
10123
10152
10189
10200
10166
10101
10056
10067
10123
10175
10181
10150
10126
10144
10189
10216
10202
10169
10157
10178
10205
10209
10188
10174
10186
10212
10217
10192
10159
10152
10176
10206
10215
10206
10201
10214
10227
10214
10176
10142
10148
10193
10239
10250
10219
10174
10148
10151
10166
10172
10161
10145
10137
10143
10159
10173
10175
10165
10152
10153
10171
10195
10203
10187
10160
10144
10150
10162
10160
10141
10125
10128
10142
10146
10132
10122
10137
10173
10188
10153
10079
10024
10035
10110
10196
10242
10238
10214
10199
10206
10233
10285
10369
10481
10597
10693
10763
10824
10894
10969
11030
11059
11044
10977
10854
10684
10500
10346
10240
10163
10077
9975
9893
9877
9932
10008
10049
10044
10029
10042
10082
10115
10118
10105
10114
10154
10201
10220
10201
10170
10152
10149
10145
10126
10103
10093
10108
10140
10173
10196
10206
10206
10201
10196
10188
10170
10135
10095
10078
10102
10158
10211
10229
10215
10202
10213
10239
10251
10237
10217
10217
10231
10224
10173
10103
10074
10120
10215
10292
10297
10237
10162
10120
10125
10163
10211
10251
10270
10262
10234
10213
10222
10259
10295
10300
10271
10239
10230
10244
10256
10249
10233
10238
10275
10329
10371
10384
10377
10366
10355
10339
10318
10300
10300
10315
10330
10334
10338
10365
10421
10487
10523
10513
10473
10444
10446
10469
10487
10492
10503
10538
10585
10608
10578
10511
10460
10462
10509
10554
10557
10521
10476
10447
10430
10407
10376
10352
10355
10378
10400
10404
10398
10399
10410
10416
10402
10369
10332
10301
10271
10237
10207
10203
10230
10264
10268
10225
10160
10115
10114
10139
10158
10155
10147
10156
10185
10212
10214
10191
10161
10146
10143
10138
10121
10102
10102
10128
10163
10185
10185
10179
10186
10211
10238
10246
10231
10205
10183
10168
10148
10123
10107
10118
10153
10187
10195
10170
10131
10107
10110
10136
10175
10215
10244
10248
10227
10201
10199
10234
10277
10279
10212
10102
10015
10005
10074
10177
10261
10303
10303
10275
10226
10168
10123
10109
10130
10160
10170
10148
10113
10098
10120
10171
10219
10236
10218
10188
10181
10212
10261
10280
10236
10138
10044
10014
10063
10154
10231
10261
10248
10217
10182
10150
10127
10130
10167
10226
10273
10278
10240
10181
10133
10113
10124
10153
10185
10203
10199
10179
10160
10154
10161
10167
10171
10179
10203
10232
10241
10216
10170
10135
10128
10134
10128
10100
10073
10075
10107
10149
10175
10183
10187
10194
10196
10178
10143
10112
10100
10106
10119
10131
10148
10176
10209
10231
10234
10224
10213
10208
10199
10175
10137
10099
10079
10085
10113
10149
10176
10190
10196
10202
10212
10217
10206
10181
10157
10151
10162
10170
10159
10135
10122
10132
10154
10165
10158
10152
10168
10200
10219
10207
10176
10158
10172
10199
10206
10180
10141
10113
10107
10115
10130
10154
10184
10205
10198
10169
10153
10185
10257
10318
10316
10247
10163
10122
10142
10196
10240
10255
10251
10244
10243
10242
10234
10219
10201
10182
10167
10156
10153
10158
10170
10188
10211
10230
10234
10209
10157
10096
10053
10043
10068
10118
10181
10241
10278
10269
10214
10137
10081
10076
10116
10160
10169
10133
10079
10045
10055
10100
10157
10200
10221
10223
10215
10201
10182
10160
10142
10140
10162
10212
10283
10371
10467
10563
10652
10731
10805
10888
10989
11094
11173
11194
11142
11026
10871
10703
10537
10381
10237
10112
10010
9934
9887
9873
9896
9953
10030
10102
10141
10138
10110
10094
10116
10168
10210
10202
10143
10076
10054
10096
10171
10235
10264
10268
10271
10278
10277
10257
10222
10187
10156
10128
10107
10108
10145
10202
10244
10245
10219
10200
10210
10233
10238
10215
10187
10182
10195
10197
10170
10135
10132
10174
10228
10247
10218
10172
10154
10177
10215
10235
10228
10212
10209
10226
10253
10279
10298
10309
10308
10296
10281
10273
10277
10288
10297
10299
10292
10277
10259
10249
10255
10279
10310
10334
10345
10358
10387
10432
10469
10472
10432
10369
10314
10287
10295
10336
10396
10456
10497
10508
10496
10484
10488
10504
10517
10513
10497
10485
10488
10506
10536
10570
10603
10619
10609
10571
10527
10498
10496
10509
10525
10541
10562
10589
10604
10587
10533
10461
10399
10365
10360
10372
10386
10389
10373
10336
10294
10271
10282
10315
10341
10339
10311
10281
10264
10258
10248
10231
10219
10223
10238
10239
10212
10169
10141
10152
10196
10243
10262
10243
10199
10157
10139
10156
10200
10252
10284
10280
10244
10202
10178
10181
10201
10224
10243
10259
10268
10254
10205
10138
10088
10087
10129
10179
10207
10215
10233
10273
10309
10296
10224
10138
10097
10120
10170
10194
10183
10174
10208
10277
10326
10311
10240
10166
10139
10165
10213
10253
10275
10282
10273
10244
10204
10176
10177
10204
10234
10248
10243
10225
10199
10167
10143
10149
10194
10263
10319
10332
10308
10266
10225
10185
10147
10128
10148
10198
10242
10239
10190
10135
10117
10140
10176
10197
10199
10199
10206
10214
10217
10220
10232
10250
10254
10235
10206
10189
10194
10212
10230
10246
10261
10255
10199
10097
10004
9993
10086
10223
10307
10289
10211
10154
10166
10216
10248
10231
10190
10161
10158
10169
10177
10182
10188
10192
10187
10178
10182
10205
10229
10231
10206
10183
10190
10227
10262
10270
10248
10220
10205
10205
10213
10223
10229
10219
10182
10127
10088
10096
10145
10196
10210
10189
10171
10187
10229
10264
10267
10245
10221
10200
10174
10143
10128
10151
10206
10252
10256
10220
10181
10173
10197
10228
10241
10232
10213
10197
10189
10190
10198
10210
10221
10233
10253
10283
10304
10288
10230
10161
10127
10140
10163
10149
10100
10079
10146
10292
10428
10463
10386
10266
10191
10188
10217
10228
10208
10187
10193
10226
10266
10298
10319
10325
10310
10273
10234
10219
10235
10255
10247
10207
10167
10162
10197
10238
10250
10229
10201
10189
10194
10196
10185
10169
10160
10159
10153
10130
10103
10096
10127
10186
10241
10262
10242
10197
10153
10126
10114
10108
10103
10105
10120
10144
10166
10176
10180
10198
10240
10295
10338
10362
10393
10468
10603
10767
10905
10986
11023
11059
11120
11187
11215
11165
11034
10844
10622
10397
10195
10049
9977
9974
10005
10036
10049
10052
10061
10085
10118
10146
10158
10148
10119
10088
10081
10113
10178
10241
10264
10232
10170
10119
10107
10133
10174
10211
10235
10249
10257
10260
10258
10250
10239
10225
10210
10199
10195
10192
10182
10159
10135
10133
10164
10220
10274
10303
10299
10274
10241
10210
10186
10177
10186
10211
10241
10264
10274
10274
10268
10258
10244
10232
10230
10242
10262
10281
10298
10316
10332
10336
10315
10273
10236
10233
10273
10332
10371
10369
10333
10289
10258
10247
10254
10277
10315
10361
10399
10412
10399
10373
10354
10359
10388
10430
10470
10493
10493
10468
10432
10407
10413
10456
10520
10574
10594
10576
10540
10512
10511
10530
10555
10574
10586
10594
10598
10593
10577
10557
10545
10545
10555
10569
10584
10594
10586
10545
10469
10388
10348
10372
10438
10492
10493
10450
10404
10392
10408
10419
10399
10357
10323
10310
10307
10292
10260
10227
10214
10223
10236
10239
10230
10223
10231
10255
10285
10309
10315
10299
10265
10223
10189
10173
10169
10169
10165
10162
10165
10171
10174
10173
10182
10211
10254
10283
10273
10226
10175
10159
10187
10233
10264
10263
10243
10220
10200
10177
10149
10131
10138
10171
10211
10231
10225
10211
10215
10242
10277
10295
10287
10264
10245
10243
10254
10261
10252
10225
10190
10164
10162
10185
10220
10244
10242
10221
10199
10193
10200
10207
10210
10216
10242
10286
10327
10340
10321
10286
10254
10228
10200
10174
10166
10187
10227
10254
10242
10201
10161
10143
10139
10125
10099
10089
10127
10208
10292
10331
10310
10259
10215
10196
10191
10183
10168
10154
10149
10152
10155
10152
10147
10145
10150
10162
10177
10188
10190
10184
10183
10196
10218
10230
10216
10181
10147
10136
10152
10180
10207
10227
10245
10258
10257
10242
10224
10216
10214
10201
10167
10132
10126
10165
10226
10267
10269
10241
10211
10190
10172
10148
10126
10123
10136
10150
10149
10140
10145
10169
10192
10190
10159
10126
10114
10122
10129
10129
10138
10176
10234
10277
10275
10236
10196
10190
10214
10241
10247
10234
10215
10197
10176
10147
10118
10099
10091
10089
10093
10110
10145
10184
10204
10195
10174
10171
10196
10228
10234
10205
10163
10139
10144
10166
10190
10208
10220
10219
10201
10174
10162
10188
10242
10287
10286
10242
10194
10180
10203
10238
10257
10260
10262
10269
10268
10243
10201
10170
10168
10188
10207
10208
10196
10190
10191
10185
10158
10118
10091
10099
10136
10177
10198
10197
10193
10201
10219
10224
10197
10140
10079
10050
10069
10120
10163
10170
10144
10116
10115
10139
10164
10171
10168
10182
10221
10258
10257
10205
10135
10091
10093
10121
10138
10131
10116
10118
10147
10198
10268
10362
10483
10618
10742
10834
10897
10945
10989
11034
11073
11096
11082
11000
10832
10599
10360
10184
10095
10061
10029
9978
9934
9936
9997
10086
10154
10180
10175
10165
10168
10182
10194
10191
10164
10113
10060
10038
10067
10133
10192
10205
10172
10133
10129
10167
10218
10247
10246
10232
10219
10205
10178
10143
10124
10141
10191
10242
10262
10244
10207
10176
10163
10166
10179
10197
10219
10237
10239
10223
10201
10192
10204
10224
10231
10217
10197
10199
10229
10266
10275
10248
10210
10200
10234
10290
10329
10330
10302
10268
10236
10202
10166
10144
10155
10200
10257
10300
10327
10348
10371
10381
10361
10317
10284
10295
10353
10426
10473
10478
10449
10406
10368
10348
10355
10388
10426
10444
10432
10415
10426
10473
10525
10537
10497
10439
10415
10446
10509
10560
10576
10565
10554
10560
10575
10578
10549
10490
10428
10400
10429
10500
10564
10577
10531
10465
10423
10421
10437
10443
10432
10417
10405
10386
10349
10307
10288
10302
10326
10327
10301
10279
10290
10321
10324
10268
10185
10139
10170
10244
10293
10273
10207
10148
10128
10131
10121
10090
10064
10077
10132
10203
10258
10284
10284
10267
10239
10206
10178
10166
10169
10176
10175
10164
10152
10152
10167
10192
10217
10230
10226
10210
10191
10181
10181
10188
10194
10195
10192
10189
10188
10189
10189
10187
10184
10185
10194
10210
10223
10218
10189
10143
10113
10129
10200
10295
10362
10359
10287
10186
10106
10081
10105
10151
10191
10214
10222
10225
10223
10217
10213
10223
10256
10300
10329
10319
10270
10214
10185
10197
10223
10229
10199
10152
10120
10123
10152
10182
10198
10199
10194
10187
10179
10168
10160
10159
10167
10177
10179
10172
10161
10153
10154
10162
10170
10174
10177
10186
10203
10217
10213
10185
10151
10140
10162
10200
10223
10218
10200
10194
10201
10202
10177
10136
10111
10122
10152
10166
10151
10133
10149
10204
10264
10288
10270
10237
10219
10221
10228
10231
10235
10244
10245
10221
10169
10115
10090
10103
10140
10178
10207
10226
10228
10201
10148
10097
10084
10118
10167
10190
10166
10117
10084
10086
10115
10147
10169
10184
10199
10213
10214
10199
10175
10161
10170
10200
10228
10228
10196
10155
10146
10188
10261
10316
10315
10267
10211
10181
10178
10177
10166
10161
10180
10217
10245
10242
10223
10221
10250
10289
10299
10270
10229
10210
10221
10239
10235
10208
10182
10175
10186
10198
10195
10181
10166
10162
10173
10193
10211
10222
10224
10226
10233
10239
10230
10193
10143
10111
10121
10160
10195
10196
10169
10146
10152
10184
10214
10223
10212
10192
10175
10164
10161
10168
10182
10191
10190
10181
10175
10174
10163
10131
10088
10061
10071
10107
10142
10161
10172
10194
10224
10245
10255
10286
10379
10538
10711
10833
10885
10907
10957
11052
11152
11202
11178
11087
10943
10750
10519
10283
10096
9991
9958
9957
9954
9945
9950
9979
10026
10072
10109
10136
10153
10159
10155
10147
10143
10144
10147
10151
10163
10187
10214
10219
10188
10130
10076
10060
10091
10152
10217
10261
10273
10254
10219
10188
10180
10201
10233
10252
10242
10214
10196
10209
10245
10276
10272
10233
10188
10171
10189
10215
10214
10183
10158
10185
10268
10355
10377
10308
10195
10118
10121
10182
10242
10260
10241
10215
10202
10198
10198
10214
10262
10333
10388
10384
10316
10224
10167
10173
10230
10300
10350
10372
10374
10366
10357
10352
10352
10355
10358
10364
10378
10399
10414
10407
10376
10344
10344
10393
10471
10536
10554
10526
10484
10463
10472
10492
10503
10500
10503
10526
10566
10597
10602
10585
10570
10569
10573
10560
10526
10495
10495
10527
10560
10561
10531
10496
10483
10484
10472
10435
10398
10390
10412
10429
10410
10362
10330
10343
10381
10394
10352
10274
10205
10176
10180
10198
10226
10268
10316
10340
10312
10238
10163
10128
10142
10179
10209
10222
10227
10230
10226
10212
10200
10204
10227
10254
10265
10257
10242
10234
10229
10217
10195
10171
10159
10165
10183
10205
10226
10248
10267
10279
10277
10259
10227
10191
10165
10161
10180
10208
10221
10211
10187
10170
10173
10189
10207
10224
10251
10289
10320
10319
10281
10228
10190
10178
10182
10188
10201
10237
10290
10332
10328
10280
10220
10188
10192
10207
10207
10191
10180
10189
10216
10245
10263
10269
10266
10253
10234
10216
10209
10213
10214
10202
10179
10159
10151
10152
10155
10164
10189
10231
10273
10294
10288
10272
10263
10263
10261
10248
10227
10204
10178
10142
10107
10103
10153
10239
10308
10312
10252
10175
10129
10124
10135
10143
10157
10189
10231
10252
10230
10184
10156
10163
10183
10184
10165
10160
10194
10248
10275
10246
10191
10164
10192
10246
10271
10243
10185
10139
10127
10140
10161
10185
10215
10246
10261
10252
10226
10205
10195
10193
10189
10192
10212
10246
10268
10257
10216
10174
10156
10157
10153
10128
10096
10085
10105
10143
10174
10193
10206
10222
10231
10222
10201
10189
10207
10245
10275
10276
10257
10241
10238
10238
10220
10184
10151
10146
10171
10207
10234
10245
10247
10244
10234
10217
10205
10213
10243
10275
10283
10265
10241
10241
10272
10310
10325
10303
10261
10228
10222
10238
10256
10259
10241
10205
10163
10129
10118
10137
10179
10222
10243
10233
10203
10172
10156
10156
10167
10184
10204
10224
10237
10238
10228
10218
10214
10214
10205
10180
10145
10120
10116
10132
10157
10179
10197
10215
10231
10236
10220
10179
10123
10071
10044
10060
10123
10223
10336
10435
10511
10572
10636
10715
10803
10887
10959
11017
11055
11061
11025
10945
10831
10695
10541
10373
10205
10063
9970
9928
9920
9929
9956
10007
10078
10145
10180
10175
10150
10133
10137
10152
10165
10170
10171
10174
10177
10182
10197
10226
10259
10275
10255
10205
10151
10124
10132
10162
10192
10208
10213
10216
10227
10248
10274
10293
10292
10269
10232
10201
10185
10185
10192
10202
10219
10244
10269
10278
10263
10231
10202
10194
10207
10230
10240
10224
10186
10149
10140
10172
10223
10257
10253
10228
10225
10264
10318
10337
10300
10243
10223
10260
10320
10348
10335
10316
10330
10369
10384
10349
10290
10268
10306
10369
10398
10378
10346
10344
10378
10408
10403
10375
10363
10393
10449
10498
10519
10517
10502
10477
10450
10438
10462
10518
10574
10589
10557
10512
10497
10523
10563
10585
10582
10571
10571
10583
10590
10584
10570
10558
10548
10532
10508
10487
10485
10502
10516
10499
10442
10364
10307
10296
10326
10367
10385
10374
10351
10333
10318
10292
10249
10206
10194
10224
10275
10309
10307
10277
10242
10216
10196
10180
10176
10195
10231
10259
10257
10228
10194
10177
10180
10192
10201
10204
10197
10174
10138
10106
10103
10138
10190
10225
10226
10208
10195
10198
10211
10224
10236
10248
10250
10229
10187
10154
10163
10214
10266
10278
10242
10194
10168
10171
10180
10177
10169
10174
10193
10204
10195
10177
10179
10212
10261
10291
10285
10250
10209
10183
10178
10187
10201
10209
10204
10194
10195
10214
10240
10246
10219
10175
10146
10150
10176
10202
10218
10231
10242
10233
10188
10119
10072
10086
10151
10219
10246
10231
10210
10209
10224
10232
10223
10211
10214
10231
10249
10261
10274
10292
10298
10270
10207
10147
10133
10169
10215
10220
10172
10107
10072
10087
10126
10153
10154
10139
10126
10122
10120
10117
10121
10141
10177
10212
10226
10212
10187
10174
10184
10208
10223
10220
10207
10204
10215
10226
10217
10190
10163
10154
10166
10181
10192
10204
10224
10245
10241
10198
10134
10093
10104
10154
10200
10205
10171
10132
10120
10141
10176
10198
10199
10185
10171
10163
10160
10160
10164
10177
10201
10221
10220
10190
10148
10130
10156
10213
10254
10247
10201
10154
10137
10143
10146
10135
10128
10146
10177
10185
10155
10113
10107
10155
10222
10260
10251
10224
10214
10224
10231
10227
10228
10251
10280
10279
10232
10174
10160
10211
10289
10329
10302
10231
10161
10117
10098
10098
10118
10158
10203
10224
10207
10167
10132
10115
10115
10120
10127
10135
10140
10133
10115
10104
10117
10150
10182
10189
10174
10155
10151
10160
10170
10166
10145
10112
10078
10062
10077
10123
10175
10203
10194
10170
10161
10174
10191
10191
10183
10197
10255
10355
10475
10609
10757
10909
11029
11082
11069
11034
11019
11021
10995
10900
10745
10574
10420
10281
10140
9999
9886
9830
9831
9865
9917
9981
10052
10109
10129
10114
10089
10081
10094
10111
10122
10134
10159
10188
10197
10174
10138
10117
10120
10131
10132
10129
10140
10167
10186
10173
10134
10104
10109
10143
10174
10185
10183
10183
10187
10181
10162
10145
10147
10166
10177
10164
10139
10130
10154
10196
10232
10242
10230
10206
10183
10170
10178
10209
10246
10266
10257
10236
10231
10252
10272
10257
10202
10141
10114
10136
10179
10207
10205
10187
10178
10188
10212
10235
10248
10251
10254
10268
10298
10339
10372
10382
10369
10351
10346
10356
10369
10379
10389
10410
10441
10467
10475
10465
10447
10431
10414
10395
10381
10386
10414
10451
10478
10488
10487
10484
10482
10480
10482
10500
10535
10568
10571
10534
10476
10434
10429
10455
10485
10495
10480
10447
10415
10399
10409
10437
10458
10449
10407
10350
10310
10298
10308
10323
10331
10332
10319
10280
10215
10144
10099
10097
10126
10157
10170
10168
10164
10159
10143
10115
10091
10093
10122
10152
10158
10141
10125
10134
10166
10195
10205
10198
10189
10186
10184
10179
10180
10197
10228
10250
10235
10182
10117
10079
10086
10125
10163
10175
10162
10143
10137
10153
10180
10203
10208
10191
10161
10133
10119
10126
10146
10167
10175
10166
10151
10143
10153
10176
10198
10209
10208
10201
10195
10193
10189
10177
10160
10146
10150
10183
10237
10288
10305
10273
10207
10148
10130
10159
10207
10239
10238
10214
10184
10159
10140
10127
10122
10126
10129
10121
10102
10090
10104
10140
10176
10192
10184
10170
10160
10151
10132
10107
10095
10112
10146
10167
10154
10116
10090
10105
10163
10235
10285
10292
10256
10197
10141
10112
10118
10149
10184
10203
10204
10194
10181
10164
10138
10106
10081
10075
10088
10105
10111
10104
10094
10096
10115
10144
10174
10198
10214
10218
10210
10191
10172
10166
10179
10198
10200
10170
10119
10082
10088
10135
10189
10213
10195
10154
10119
10099
10093
10103
10142
10216
10291
10312
10242
10111
9998
9972
10038
10140
10215
10239
10228
10202
10168
10132
10113
10136
10197
10258
10272
10234
10181
10155
10164
10179
10177
10166
10173
10204
10235
10231
10194
10156
10151
10176
10206
10218
10219
10223
10234
10240
10230
10218
10226
10261
10303
10321
10298
10245
10186
10140
10116
10116
10138
10174
10206
10218
10207
10184
10168
10166
10172
10170
10152
10126
10110
10122
10165
10219
10248
10226
10158
10084
10051
10080
10151
10219
10250
10244
10224
10209
10200
10183
10151
10116
10100
10115
10151
10185
10194
10178
10164
10183
10251
10345
10424
10460
10468
10494
10574
10704
10838
10935
10990
11031
11080
11116
11089
10961
10754
10534
10369
10278
10229
10173
10089
9994
9923
9902
9931
9989
10052
10100
10127
10139
10150
10170
10201
10231
10245
10233
10202
10167
10139
10123
10120
10136
10172
10222
10263
10274
10250
10210
10184
10187
10213
10244
10265
10269
10255
10221
10175
10138
10132
10165
10213
10243
10236
10211
10203
10234
10288
10333
10344
10329
10308
10294
10283
10266
10246
10242
10268
10321
10373
10390
10357
10293
10237
10224
10252
10285
10288
10257
10229
10244
10300
10350
10348
10301
10262
10282
10351
10410
10409
10354
10300
10294
10328
10361
10362
10344
10336
10352
10381
10406
10429
10454
10472
10462
10426
10395
10412
10483
10562
10595
10568
10521
10504
10528
10557
10553
10520
10499
10525
10592
10654
10669
10632
10576
10544
10555
10591
10619
10608
10559
10498
10461
10461
10488
10519
10538
10541
10531
10505
10461
10408
10367
10355
10370
10392
10399
10389
10365
10336
10305
10285
10293
10331
10369
10364
10303
10229
10211
10279
10386
10444
10397
10276
10162
10122
10158
10226
10280
10304
10304
10284
10248
10206
10181
10189
10229
10278
10313
10329
10326
10307
10273
10233
10204
10202
10222
10245
10251
10239
10221
10213
10219
10236
10258
10274
10273
10247
10209
10189
10216
10287
10366
10406
10386
10320
10243
10188
10167
10175
10200
10227
10252
10274
10294
10309
10308
10288
10262
10255
10284
10334
10369
10366
10335
10312
10312
10319
10302
10262
10237
10255
10302
10325
10291
10229
10200
10237
10306
10340
10309
10247
10211
10225
10262
10283
10284
10286
10305
10325
10318
10277
10231
10214
10231
10255
10260
10242
10218
10208
10216
10235
10257
10278
10292
10293
10280
10262
10248
10245
10250
10262
10282
10312
10340
10348
10325
10276
10224
10187
10172
10173
10184
10206
10237
10268
10288
10295
10299
10307
10313
10306
10282
10250
10231
10233
10245
10250
10239
10222
10212
10218
10236
10260
10285
10312
10332
10334
10307
10254
10195
10156
10154
10191
10248
10302
10327
10316
10279
10234
10201
10189
10199
10226
10263
10299
10319
10313
10288
10266
10268
10294
10320
10317
10283
10244
10232
10252
10280
10289
10277
10267
10279
10303
10306
10277
10239
10235
10283
10354
10396
10383
10338
10313
10332
10377
10405
10392
10348
10300
10262
10231
10199
10177
10179
10212
10262
10306
10330
10334
10320
10290
10249
10216
10211
10242
10286
10309
10293
10252
10220
10216
10236
10260
10274
10280
10286
10291
10288
10273
10255
10246
10253
10270
10287
10290
10274
10239
10198
10167
10157
10166
10180
10186
10192
10223
10296
10406
10528
10641
10742
10835
10915
10965
10984
10999
11046
11120
11171
11134
10994
10803
10632
10511
10411
10289
10145
10025
9972
9982
10019
10057
10108
10191
10286
10336
10300
10203
10120
10110
10166
10233
10263
10259
10251
10254
10251
10230
10205
10211
10257
10313
10330
10295
10243
10223
10249
10291
10310
10299
10281
10281
10295
10298
10268
10211
10159
10142
10170
10227
10283
10317
10325
10316
10307
10304
10301
10291
10278
10276
10296
10329
10352
10347
10322
10300
10299
10314
10328
10330
10321
10310
10302
10297
10298
10311
10332
10348
10346
10336
10341
10377
10427
10454
10433
10383
10352
10366
10406
10426
10404
10363
10344
10365
10399
10409
10388
10366
10376
10423
10476
10503
10496
10475
10467
10483
10519
10567
10620
10667
10690
10674
10625
10573
10554
10584
10642
10683
10667
10592
10498
10438
10444
10505
10583
10641
10670
10679
10679
10668
10634
10577
10515
10470
10451
10443
10425
10391
10358
10349
10373
10410
10432
10422
10389
10358
10350
10370
10403
10428
10436
10429
10413
10390
10357
10310
10258
10216
10200
10212
10242
10274
10299
10314
10320
10319
10309
10293
10276
10257
10235
10210
10188
10183
10200
10231
10258
10264
10252
10240
10244
10264
10286
10295
10294
10300
10321
10343
10339
10294
10222
10165
10162
10211
10277
10313
10304
10271
10247
10252
10274
10290
10290
10284
10285
10291
10287
10266
10244
10246
10283
10332
10357
10335
10276
10217
10189
10200
10231
10262
10283
10301
10323
10349
10369
10372
10352
10315
10275
10248
10242
10255
10271
10274
10258
10236
10226
10238
10260
10270
10254
10217
10182
10174
10195
10236
10277
10306
10315
10304
10278
10249
10236
10247
10270
10281
10267
10241
10232
10256
10297
10315
10289
10236
10198
10199
10229
10259
10270
10269
10271
10279
10275
10248
10201
10155
10125
10116
10126
10157
10210
10270
10309
10302
10254
10196
10166
10178
10217
10254
10271
10265
10251
10248
10268
10309
10347
10353
10316
10257
10213
10203
10220
10236
10240
10239
10242
10236
10204
10145
10098
10105
10170
10251
10298
10296
10278
10276
10288
10286
10256
10220
10211
10236
10265
10265
10235
10205
10202
10219
10234
10230
10215
10209
10218
10235
10252
10269
10287
10297
10285
10253
10218
10199
10199
10204
10204
10206
10227
10271
10317
10339
10331
10308
10295
10300
10312
10311
10287
10243
10195
10161
10154
10171
10204
10241
10275
10304
10320
10311
10270
10211
10166
10159
10185
10208
10204
10177
10155
10157
10176
10194
10209
10232
10268
10291
10271
10206
10136
10109
10138
10185
10211
10211
10213
10235
10262
10260
10220
10173
10154
10161
10163
10138
10108
10118
10190
10295
10381
10428
10463
10527
10627
10734
10814
10869
10933
11025
11122
11167
11117
10977
10792
10612
10457
10316
10178
10047
9948
9900
9905
9946
10001
10051
10085
10099
10100
10104
10132
10183
10236
10259
10242
10208
10191
10209
10237
10236
10194
10140
10115
10134
10165
10165
10124
10076
10069
10120
10199
10254
10255
10208
10149
10116
10124
10164
10212
10245
10253
10240
10222
10209
10200
10193
10188
10192
10213
10242
10265
10268
10253
10229
10208
10195
10188
10183
10173
10160
10150
10163
10211
10282
10335
10334
10279
10215
10196
10229
10274
10277
10234
10188
10185
10228
10277
10294
10281
10275
10297
10328
10335
10307
10266
10248
10264
10300
10337
10369
10393
10403
10392
10367
10350
10359
10387
10409
10414
10416
10442
10498
10552
10569
10545
10507
10487
10484
10476
10450
10424
10431
10480
10544
10585
10586
10564
10542
10530
10520
10506
10496
10500
10515
10521
10500
10455
10406
10375
10371
10385
10400
10402
10382
10340
10289
10255
10252
10272
10285
10264
10215
10176
10180
10225
10271
10279
10245
10201
10179
10176
10166
10129
10081
10054
10063
10091
10107
10105
10106
10132
10179
10218
10231
10221
10208
10197
10176
10140
10106
10107
10147
10198
10217
10194
10154
10130
10126
10124
10117
10124
10168
10233
10269
10234
10144
10063
10045
10088
10140
10153
10129
10099
10088
10090
10086
10076
10079
10109
10155
10186
10185
10160
10133
10120
10121
10128
10143
10168
10196
10215
10215
10197
10174
10156
10143
10133
10125
10120
10124
10134
10146
10154
10155
10152
10149
10150
10154
10151
10135
10111
10099
10119
10163
10198
10193
10151
10106
10094
10113
10129
10112
10072
10052
10084
10152
10207
10213
10171
10118
10085
10075
10077
10086
10108
10143
10178
10190
10174
10148
10138
10155
10181
10186
10150
10082
10014
9981
9999
10055
10116
10148
10144
10125
10118
10135
10162
10170
10147
10108
10078
10069
10076
10082
10086
10098
10125
10158
10177
10170
10144
10122
10119
10133
10146
10149
10146
10145
10150
10149
10130
10093
10060
10051
10068
10087
10084
10058
10035
10044
10086
10132
10143
10114
10073
10060
10088
10136
10170
10174
10161
10153
10155
10153
10129
10080
10029
10004
10028
10096
10175
10228
10234
10204
10170
10159
10169
10173
10156
10133
10137
10185
10252
10286
10261
10196
10141
10125
10134
10134
10109
10082
10085
10122
10159
10158
10116
10069
10056
10085
10131
10158
10155
10133
10112
10101
10100
10106
10123
10149
10175
10186
10173
10141
10105
10079
10069
10073
10089
10109
10127
10134
10123
10096
10073
10075
10110
10164
10204
10204
10163
10110
10074
10070
10086
10104
10117
10132
10166
10224
10308
10411
10526
10639
10732
10791
10827
10870
10941
11028
11079
11045
10916
10729
10532
10348
10166
9980
9816
9722
9729
9809
9898
9947
9954
9960
9994
10047
10083
10078
10049
10036
10062
10115
10160
10167
10134
10087
10057
10059
10089
10126
10154
10166
10170
10176
10187
10196
10186
10155
10114
10081
10066
10065
10070
10078
10097
10130
10166
10189
10188
10168
10145
10126
10113
10105
10107
10124
10152
10176
10178
10153
10115
10085
10082
10108
10156
10207
10242
10247
10224
10190
10166
10159
10160
10152
10137
10133
10160
10216
10276
10310
10306
10275
10235
10203
10185
10185
10207
10246
10292
10326
10334
10315
10280
10247
10230
10235
10252
10266
10270
10271
10285
10319
10360
10385
10385
10375
10379
10402
10424
10422
10402
10395
10427
10487
10531
10523
10469
10409
10381
10397
10439
10485
10520
10533
10515
10466
10405
10364
10365
10403
10449
10478
10479
10455
10412
10362
10323
10313
10335
10359
10353
10307
10246
10208
10206
10215
10208
10181
10155
10151
10160
10164
10152
10133
10120
10111
10094
10069
10051
10055
10079
10102
10114
10126
10152
10188
10210
10195
10148
10097
10062
10041
10024
10013
10020
10053
10096
10122
10116
10087
10056
10037
10034
10046
10073
10106
10130
10134
10127
10134
10165
10198
10200
10157
10097
10059
10056
10068
10072
10072
10090
10132
10169
10164
10116
10066
10053
10082
10112
10111
10086
10073
10097
10141
10168
10155
10118
10087
10084
10105
10131
10150
10159
10158
10145
10120
10085
10047
10025
10037
10096
10185
10262
10275
10205
10087
9991
9974
10038
10131
10194
10196
10156
10111
10091
10098
10117
10126
10118
10100
10086
10086
10092
10085
10058
10025
10015
10045
10097
10135
10132
10097
10061
10048
10060
10081
10104
10128
10152
10165
10156
10133
10122
10141
10178
10194
10163
10092
10021
9988
10003
10046
10089
10116
10126
10130
10134
10133
10121
10095
10068
10064
10101
10168
10225
10228
10170
10087
10036
10041
10084
10119
10122
10100
10081
10081
10097
10120
10148
10180
10203
10200
10165
10116
10081
10073
10079
10075
10056
10039
10045
10072
10097
10104
10097
10095
10110
10134
10148
10143
10126
10114
10115
10130
10155
10186
10220
10242
10239
10204
10153
10115
10113
10144
10183
10204
10201
10192
10198
10220
10235
10220
10171
10112
10074
10069
10085
10102
10110
10110
10108
10100
10083
10061
10051
10064
10098
10138
10170
10185
10180
10151
10102
10052
10030
10054
10110
10159
10169
10142
10111
10104
10119
10133
10132
10124
10128
10146
10161
10155
10127
10092
10068
10057
10055
10060
10071
10076
10060
10017
9973
9973
10042
10159
10269
10331
10354
10387
10473
10612
10759
10868
10925
10956
10991
11038
11068
11041
10938
10771
10576
10393
10242
10123
10026
9942
9869
9814
9790
9815
9890
9996
10090
10132
10115
10069
10040
10046
10072
10089
10089
10094
10122
10158
10165
10121
10051
10010
10031
10093
10145
10155
10134
10117
10122
10137
10138
10119
10103
10107
10130
10152
10154
10138
10115
10099
10093
10098
10109
10123
10139
10157
10182
10206
10215
10191
10140
10090
10075
10104
10153
10188
10198
10195
10195
10192
10174
10147
10138
10168
10222
10254
10236
10189
10169
10209
10284
10335
10321
10259
10200
10181
10199
10226
10240
10248
10263
10290
10316
10325
10312
10293
10293
10326
10382
10427
10427
10374
10300
10256
10275
10344
10422
10475
10497
10501
10493
10467
10420
10370
10349
10370
10412
10444
10456
10463
10482
10506
10513
10491
10456
10435
10436
10447
10451
10450
10457
10471
10472
10442
10388
10346
10339
10362
10385
10386
10365
10341
10325
10312
10298
10283
10271
10263
10250
10228
10203
10182
10168
10158
10151
10150
10158
10164
10159
10143
10131
10136
10149
10143
10108
10061
10037
10048
10075
10088
10083
10089
10130
10198
10250
10248
10188
10106
10041
10018
10037
10091
10165
10233
10266
10248
10191
10131
10100
10107
10135
10165
10183
10190
10187
10179
10170
10166
10170
10174
10171
10157
10138
10121
10110
10109
10120
10143
10166
10171
10147
10105
10077
10087
10133
10187
10222
10227
10213
10196
10183
10175
10165
10153
10138
10124
10115
10117
10129
10144
10153
10158
10167
10184
10196
10188
10160
10137
10139
10166
10190
10185
10163
10157
10187
10230
10237
10182
10092
10025
10020
10066
10123
10156
10165
10163
10163
10158
10148
10139
10147
10174
10200
10198
10157
10096
10054
10065
10130
10212
10259
10240
10168
10092
10058
10077
10121
10154
10163
10160
10160
10161
10155
10143
10141
10164
10200
10218
10195
10149
10120
10139
10199
10260
10283
10254
10189
10117
10062
10038
10049
10082
10118
10140
10145
10141
10140
10144
10149
10154
10165
10191
10220
10227
10194
10130
10073
10067
10121
10201
10255
10250
10198
10143
10125
10150
10190
10217
10224
10225
10229
10222
10186
10130
10091
10109
10181
10258
10288
10260
10210
10182
10184
10198
10211
10231
10269
10310
10315
10266
10194
10155
10173
10217
10231
10201
10158
10145
10164
10180
10168
10144
10142
10171
10200
10201
10182
10180
10214
10253
10253
10210
10166
10168
10210
10242
10221
10161
10112
10114
10158
10206
10232
10236
10228
10211
10181
10148
10137
10158
10195
10216
10206
10185
10180
10197
10217
10221
10220
10242
10302
10388
10474
10551
10625
10703
10776
10827
10857
10892
10954
11031
11081
11056
10947
10785
10613
10456
10317
10194
10093
10030
10007
10012
10022
10028
10037
10063
10107
10151
10177
10179
10171
10172
10192
10225
10258
10282
10297
10308
10309
10294
10260
10215
10176
10156
10160
10180
10205
10221
10222
10210
10198
10194
10200
10205
10200
10190
10190
10212
10244
10265
10260
10244
10245
10279
10330
10364
10364
10339
10315
10304
10299
10284
10263
10249
10253
10264
10268
10260
10253
10260
10273
10274
10254
10227
10221
10248
10299
10350
10384
10393
10377
10337
10287
10253
10262
10318
10391
10439
10441
10406
10366
10343
10337
10339
10347
10366
10399
10434
10456
10462
10458
10454
10452
10447
10443
10452
10480
10518
10542
10542
10535
10547
10585
10624
10623
10573
10509
10490
10542
10636
10706
10708
10654
10588
10553
10549
10551
10544
10538
10554
10597
10640
10645
10596
10516
10445
10415
10426
10453
10466
10451
10415
10379
10361
10364
10379
10386
10379
10361
10347
10344
10345
10340
10325
10310
10303
10302
10293
10263
10217
10176
10164
10187
10233
10278
10301
10298
10278
10261
10262
10285
10318
10341
10342
10321
10288
10253
10223
10206
10212
10248
10303
10346
10352
10320
10276
10252
10258
10276
10284
10273
10255
10246
10249
10260
10273
10285
10295
10300
10292
10271
10247
10230
10224
10230
10247
10275
10307
10331
10334
10321
10304
10294
10291
10286
10273
10260
10256
10261
10266
10270
10281
10310
10351
10379
10375
10345
10316
10311
10327
10339
10327
10293
10256
10224
10196
10170
10155
10165
10200
10242
10264
10261
10248
10247
10267
10299
10324
10330
10317
10293
10272
10265
10276
10299
10319
10326
10320
10310
10300
10278
10233
10176
10139
10149
10204
10268
10302
10299
10281
10275
10281
10283
10267
10241
10224
10225
10231
10224
10207
10199
10219
10262
10303
10320
10312
10300
10303
10319
10333
10329
10307
10276
10245
10221
10206
10209
10233
10270
10300
10301
10275
10242
10225
10228
10235
10232
10219
10213
10226
10249
10260
10254
10244
10252
10278
10301
10302
10286
10277
10289
10304
10288
10230
10163
10137
10175
10252
10314
10328
10303
10274
10269
10291
10326
10362
10394
10418
10420
10392
10334
10270
10227
10224
10257
10304
10340
10350
10335
10313
10300
10301
10305
10296
10276
10257
10255
10266
10275
10267
10247
10233
10240
10264
10286
10287
10264
10228
10193
10172
10173
10198
10240
10280
10302
10304
10300
10306
10318
10320
10302
10274
10259
10265
10276
10270
10240
10204
10184
10184
10193
10201
10211
10233
10266
10294
10310
10328
10377
10474
10602
10722
10810
10873
10937
11012
11084
11127
11130
11101
11049
10970
10849
10682
10494
10330
10222
10172
10154
10138
10117
10104
10114
10147
10188
10219
10235
10241
10245
10241
10221
10188
10165
10181
10247
10337
10406
10420
10376
10302
10236
10199
10196
10221
10265
10312
10347
10356
10342
10320
10307
10307
10310
10304
10287
10270
10260
10260
10265
10272
10285
10306
10335
10366
10392
10408
10411
10398
10371
10339
10311
10289
10271
10252
10242
10251
10280
10311
10321
10304
10279
10273
10298
10340
10378
10402
10418
10432
10433
10412
10368
10324
10301
10303
10320
10342
10378
10435
10501
10537
10513
10438
10362
10334
10364
10422
10467
10486
10490
10494
10501
10509
10520
10539
10561
10568
10549
10523
10530
10588
10671
10725
10711
10644
10574
10542
10547
10563
10572
10582
10611
10652
10684
10688
10668
10648
10644
10651
10653
10646
10633
10618
10594
10556
10514
10492
10502
10529
10541
10519
10475
10438
10424
10424
10414
10387
10358
10348
10362
10387
10410
10425
10440
10455
10461
10445
10404
10345
10286
10243
10229
10249
10295
10345
10373
10367
10339
10320
10329
10359
10380
10368
10326
10282
10264
10275
10291
10289
10265
10240
10236
10259
10294
10316
10313
10293
10272
10266
10278
10307
10347
10390
10421
10430
10415
10392
10383
10392
10400
10383
10333
10273
10241
10254
10295
10331
10343
10333
10319
10310
10301
10289
10285
10302
10339
10376
10392
10382
10363
10352
10351
10348
10337
10326
10326
10335
10339
10326
10303
10289
10295
10304
10295
10262
10227
10223
10262
10324
10372
10384
10361
10327
10302
10295
10302
10321
10351
10390
10430
10455
10453
10421
10376
10340
10325
10328
10337
10339
10335
10326
10314
10292
10261
10236
10238
10270
10311
10330
10313
10279
10266
10294
10346
10386
10386
10348
10296
10257
10246
10262
10289
10305
10299
10276
10261
10276
10322
10369
10389
10380
10369
10380
10401
10397
10347
10275
10232
10248
10307
10359
10371
10347
10312
10280
10249
10216
10197
10211
10254
10301
10324
10319
10306
10305
10317
10333
10346
10358
10365
10351
10304
10239
10190
10186
10220
10259
10277
10279
10288
10315
10345
10361
10360
10358
10363
10368
10359
10342
10333
10338
10341
10318
10276
10254
10289
10372
10450
10467
10417
10344
10301
10306
10335
10357
10353
10330
10301
10279
10271
10279
10293
10292
10265
10222
10195
10211
10265
10328
10370
10384
10381
10366
10331
10277
10231
10233
10295
10380
10417
10367
10252
10144
10104
10143
10224
10303
10354
10378
10377
10357
10326
10305
10306
10319
10317
10282
10228
10194
10214
10287
10382
10470
10542
10614
10697
10786
10870
10945
11023
11116
11216
11287
11289
11201
11033
10822
10609
10430
10297
10208
10149
10109
10081
10065
10061
10069
10091
10129
10186
10253
10305
10318
10284
10227
10191
10205
10269
10346
10394
10392
10347
10285
10237
10222
10247
10300
10357
10393
10394
10367
10335
10316
10315
10328
10344
10357
10361
10348
10315
10274
10245
10243
10261
10277
10274
10256
10243
10251
10274
10298
10312
10322
10334
10347
10343
10317
10283
10270
10297
10348
10387
10386
10350
10319
10330
10382
10438
10455
10419
10358
10317
10320
10359
10400
10422
10424
10417
10407
10393
10371
10352
10350
10366
10387
10398
10400
10409
10437
10470
10480
10456
10418
10400
10423
10474
10523
10550
10554
10547
10536
10529
10537
10568
10611
10638
10625
10582
10553
10576
10649
10723
10749
10722
10673
10640
10627
10614
10592
10579
10593
10627
10646
10623
10571
10531
10530
10558
10582
10578
10556
10530
10505
10466
10411
10360
10340
10356
10382
10384
10361
10341
10355
10399
10437
10436
10395
10348
10320
10314
10309
10294
10283
10293
10320
10335
10306
10238
10172
10152
10190
10251
10293
10297
10280
10269
10274
10281
10272
10252
10244
10265
10302
10319
10288
10213
10137
10110
10148
10228
10297
10313
10276
10219
10187
10197
10234
10269
10287
10293
10298
10305
10302
10287
10274
10282
10309
10325
10296
10226
10156
10133
10166
10224
10263
10273
10270
10272
10274
10260
10227
10195
10190
10214
10247
10266
10271
10267
10257
10236
10210
10205
10246
10320
10376
10364
10284
10192
10149
10174
10234
10287
10318
10336
10346
10333
10284
10212
10155
10139
10152
10159
10138
10104
10093
10125
10184
10237
10264
10267
10256
10234
10204
10180
10182
10220
10272
10298
10277
10226
10190
10200
10247
10290
10296
10269
10241
10243
10277
10315
10327
10302
10253
10200
10158
10134
10127
10137
10156
10175
10186
10193
10206
10228
10247
10242
10209
10169
10153
10173
10205
10213
10184
10143
10130
10162
10218
10260
10269
10256
10245
10250
10262
10271
10277
10289
10308
10324
10321
10291
10241
10189
10154
10152
10185
10236
10278
10283
10247
10194
10156
10152
10174
10202
10224
10242
10256
10259
10241
10205
10170
10159
10178
10211
10236
10240
10221
10188
10155
10141
10163
10217
10278
10310
10296
10262
10248
10277
10331
10365
10355
10312
10273
10264
10280
10299
10305
10295
10273
10242
10203
10165
10145
10153
10186
10226
10253
10259
10246
10218
10183
10152
10142
10158
10191
10220
10232
10223
10205
10189
10180
10182
10194
10211
10218
10200
10162
10126
10119
10147
10185
10204
10198
10185
10186
10191
10176
10129
10077
10071
10136
10247
10347
10401
10419
10441
10494
10573
10655
10737
10835
10963
11103
11214
11257
11225
11134
11006
10857
10695
10530
10373
10225
10088
9975
9915
9932
10012
10101
10140
10110
10051
10024
10057
10128
10190
10216
10211
10199
10195
10196
10201
10213
10235
10256
10256
10224
10174
10136
10134
10166
10215
10254
10265
10239
10184
10127
10104
10131
10190
10243
10256
10236
10213
10210
10222
10226
10218
10215
10237
10277
10302
10288
10249
10226
10247
10301
10346
10351
10317
10264
10213
10175
10157
10168
10206
10252
10278
10265
10227
10194
10195
10234
10291
10340
10355
10324
10253
10175
10132
10152
10224
10306
10359
10375
10375
10382
10389
10381
10357
10342
10358
10400
10429
10417
10371
10335
10344
10398
10460
10499
10509
10508
10512
10524
10536
10540
10532
10509
10472
10435
10424
10453
10514
10573
10598
10584
10553
10526
10510
10494
10472
10454
10455
10479
10512
10534
10540
10535
10527
10515
10494
10465
10444
10441
10451
10454
10428
10378
10330
10310
10325
10357
10378
10378
10365
10357
10359
10356
10330
10275
10210
10163
10150
10167
10192
10204
10199
10191
10199
10234
10285
10320
10307
10240
10150
10094
10114
10202
10299
10338
10294
10200
10124
10107
10145
10197
10228
10235
10238
10258
10295
10329
10340
10319
10274
10227
10196
10189
10198
10206
10203
10196
10203
10232
10264
10274
10248
10207
10187
10208
10251
10279
10270
10239
10215
10218
10238
10251
10246
10229
10216
10213
10218
10227
10238
10251
10260
10260
10254
10251
10259
10269
10265
10245
10227
10235
10273
10312
10317
10279
10227
10201
10214
10247
10267
10258
10235
10217
10211
10206
10194
10178
10171
10178
10192
10204
10209
10213
10220
10227
10226
10216
10207
10207
10219
10234
10243
10244
10241
10240
10244
10252
10257
10252
10234
10210
10192
10191
10202
10210
10200
10182
10175
10194
10228
10250
10244
10226
10229
10262
10293
10277
10198
10092
10025
10036
10113
10209
10280
10312
10309
10277
10218
10146
10091
10083
10123
10182
10219
10218
10195
10182
10192
10213
10224
10213
10190
10168
10152
10137
10120
10109
10117
10150
10197
10235
10249
10238
10219
10208
10208
10213
10216
10214
10213
10215
10212
10201
10184
10173
10180
10200
10218
10220
10210
10205
10215
10236
10249
10241
10215
10189
10177
10178
10183
10188
10202
10231
10270
10296
10292
10260
10222
10208
10226
10260
10288
10295
10289
10283
10277
10261
10231
10202
10203
10243
10299
10326
10297
10229
10171
10162
10196
10236
10245
10215
10169
10133
10125
10144
10180
10211
10218
10185
10123
10066
10049
10083
10148
10213
10259
10281
10279
10249
10195
10140
10116
10132
10166
10186
10181
10177
10197
10234
10251
10225
10173
10138
10140
10167
10198
10244
10336
10480
10637
10749
10799
10827
10886
10982
11080
11141
11166
11166
11117
10962
10681
10343
10079
9980
10016
10070
10054
9978
9922
9937
9998
10047
10064
10085
10147
10232
10281
10255
10182
10126
10124
10156
10178
10174
10160
10161
10175
10182
10172
10164
10181
10228
10284
10315
10305
10264
10215
10182
10175
10190
10208
10208
10187
10158
10144
10156
10186
10216
10236
10250
10264
10275
10274
10260
10245
10245
10265
10289
10300
10291
10273
10262
10265
10276
10288
10289
10276
10250
10225
10220
10250
10310
10373
10409
10398
10349
10287
10239
10221
10232
10261
10294
10323
10344
10358
10371
10385
10402
10421
10436
10440
10420
10376
10327
10299
10313
10363
10422
10467
10489
10493
10490
10481
10470
10471
10498
10546
10595
10621
10622
10614
10607
10592
10555
10509
10490
10531
10614
10684
10694
10653
10612
10612
10643
10661
10638
10595
10567
10566
10564
10530
10465
10406
10388
10410
10442
10459
10461
10458
10454
10445
10429
10414
10409
10410
10402
10376
10340
10314
10312
10332
10360
10382
10383
10356
10306
10257
10236
10251
10278
10282
10252
10217
10217
10261
10314
10329
10295
10243
10213
10216
10234
10245
10251
10266
10292
10317
10325
10319
10309
10294
10265
10220
10186
10194
10245
10300
10312
10276
10234
10231
10272
10316
10321
10286
10246
10232
10245
10265
10281
10297
10317
10327
10308
10262
10215
10198
10214
10240
10258
10270
10294
10329
10353
10343
10305
10267
10255
10269
10292
10308
10320
10330
10330
10309
10269
10236
10233
10260
10288
10293
10273
10252
10248
10261
10278
10294
10313
10333
10337
10309
10252
10195
10171
10189
10229
10269
10300
10325
10343
10342
10312
10267
10231
10226
10247
10275
10289
10289
10286
10290
10304
10320
10330
10320
10282
10220
10157
10125
10138
10180
10217
10227
10216
10210
10222
10247
10271
10290
10308
10329
10340
10326
10293
10265
10266
10296
10329
10335
10307
10258
10212
10189
10197
10237
10292
10335
10338
10296
10235
10193
10186
10201
10215
10220
10230
10256
10284
10288
10260
10225
10219
10252
10292
10293
10243
10175
10139
10162
10230
10307
10360
10374
10352
10304
10252
10220
10227
10268
10317
10346
10347
10335
10330
10332
10324
10292
10242
10203
10199
10232
10284
10330
10355
10355
10335
10303
10270
10250
10254
10276
10299
10307
10299
10287
10284
10293
10304
10302
10289
10272
10264
10268
10277
10282
10281
10274
10264
10253
10247
10249
10265
10291
10319
10341
10346
10330
10297
10259
10232
