806
792
768
756
744
734
724
704
694
686
676
668
660
654
638
632
626
620
614
602
596
590
584
580
570
564
560
556
552
546
542
534
528
524
520
516
506
500
496
490
486
480
476
464
458
452
446
440
426
418
410
402
394
376
366
358
348
338
328
318
298
288
278
268
258
238
228
218
210
202
194
186
170
164
156
150
144
134
130
124
120
116
112
108
102
98
94
90
86
78
72
66
62
56
42
34
26
18
10
2
-7
-27
-37
-47
-57
-67
-89
-97
-107
-117
-127
-135
-143
-159
-165
-171
-175
-181
-187
-189
-191
-191
-193
-193
-191
-191
-189
-187
-183
-181
-177
-173
-171
-169
-167
-163
-161
-161
-159
-159
-159
-161
-163
-165
-167
-169
-173
-179
-183
-189
-193
-199
-209
-215
-223
-229
-237
-243
-251
-269
-277
-287
-295
-305
-325
-335
-347
-357
-367
-377
-389
-409
-417
-427
-435
-445
-457
-461
-467
-469
-471
-469
-467
-465
-457
-451
-439
-427
-401
-411
-421
-395
-371
-381
-333
-287
-223
-159
-171
-185
24
160
296
456
618
950
1076
1204
1500
1796
1896
1998
1654
1610
1568
1274
980
114
-291
-699
-917
-1135
-1333
-1283
-1233
-1057
-881
-875
-871
-811
-769
-727
-689
-653
-607
-629
-651
-637
-625
-615
-605
-593
-591
-589
-587
-587
-585
-585
-585
-587
-589
-593
-595
-599
-601
-603
-605
-609
-613
-613
-615
-615
-617
-615
-611
-609
-603
-599
-593
-587
-571
-561
-551
-539
-529
-503
-489
-477
-463
-449
-423
-409
-395
-381
-369
-355
-343
-319
-307
-297
-285
-275
-255
-243
-233
-223
-213
-201
-191
-169
-155
-143
-129
-117
-89
-73
-59
-43
-27
4
22
38
56
72
82
92
138
154
170
186
202
230
242
256
268
282
294
306
326
334
342
348
354
362
362
364
362
362
358
354
340
330
320
306
294
260
266
274
250
228
180
154
126
100
72
38
4
-61
-77
-93
-119
-145
-191
-213
-235
-253
-273
-285
-297
-325
-337
-349
-359
-369
-383
-389
-395
-397
-401
-401
-399
-399
-395
-391
-385
-379
-363
-353
-345
-333
-323
-299
-285
-273
-259
-247
-233
-219
-193
-181
-169
-157
-147
-125
-115
-107
-99
-91
-79
-73
-69
-65
-61
-59
-57
-53
-53
-53
-53
-53
-53
-53
-55
-55
-57
-57
-59
-61
-61
-63
-65
-67
-71
-73
-77
-79
-83
-91
-95
-101
-105
-109
-113
-119
-129
-133
-137
-141
-145
-149
-149
-151
-149
-149
-147
-145
-139
-133
-129
-123
-119
-109
-103
-99
-93
-89
-85
-83
-79
-77
-77
-77
-79
-83
-85
-89
-93
-99
-109
-113
-119
-123
-129
-135
-141
-151
-155
-161
-165
-169
-177
-179
-183
-185
-189
-191
-193
-197
-197
-199
-199
-201
-203
-201
-201
-199
-199
-195
-191
-189
-185
-183
-179
-175
-165
-159
-155
-149
-145
-135
-129
-123
-119
-115
-111
-107
-101
-97
-95
-93
-93
-93
-93
-95
-97
-99
-105
-109
-113
-117
-123
-127
-133
-143
-147
-153
-157
-161
-171
-173
-177
-179
-183
-185
-187
-187
-187
-187
-185
-185
-179
-175
-173
-167
-163
-153
-147
-141
-133
-127
-119
-113
-97
-87
-79
-69
-61
-45
-35
-27
-19
-13
-5
0
12
18
22
26
28
32
32
32
30
28
26
22
12
8
2
-3
-11
-27
-35
-43
-51
-59
-75
-83
-91
-97
-105
-111
-119
-131
-135
-141
-145
-149
-153
-155
-157
-155
-155
-151
-149
-147
-143
-139
-129
-121
-91
-75
-61
-65
-69
-117
-83
-49
4
56
132
188
318
448
612
778
1154
1342
1532
1790
2048
2264
2480
2688
2450
2212
2130
2050
1292
832
374
-59
-495
-855
-927
-1001
-947
-895
-739
-583
-555
-519
-483
-437
-393
-315
-287
-261
-273
-285
-267
-249
-221
-209
-197
-187
-179
-163
-153
-145
-135
-127
-111
-101
-93
-85
-77
-67
-59
-41
-33
-25
-17
-9
4
12
18
24
28
32
36
40
40
40
40
38
32
28
24
20
14
8
2
-11
-17
-23
-29
-37
-49
-53
-59
-63
-69
-75
-77
-81
-81
-83
-83
-83
-79
-77
-75
-69
-65
-55
-47
-41
-31
-23
-13
-3
20
34
46
60
74
104
120
136
152
168
200
212
226
238
252
264
276
294
300
306
310
314
314
312
310
304
298
288
280
256
242
230
214
200
202
180
158
134
108
54
42
30
-1
-35
-73
-111
-191
-231
-273
-313
-353
-427
-459
-493
-495
-497
-519
-541
-555
-565
-577
-583
-591
-599
-601
-603
-601
-601
-597
-591
-587
-581
-575
-567
-559
-545
-537
-529
-521
-515
-499
-493
-487
-481
-475
-469
-465
-455
-451
-447
-443
-439
-431
-427
-423
-419
-415
-409
-405
-395
-389
-383
-377
-373
-361
-355
-349
-343
-337
-325
-319
-313
-307
-303
-297
-291
-281
-275
-271
-265
-259
-249
-241
-235
-227
-221
-213
-207
-189
-181
-173
-163
-153
-135
-125
-117
-109
-101
-85
-79
-73
-67
-63
-59
-57
-53
-53
-53
-55
-57
-63
-67
-73
-77
-83
-89
-97
-109
-117
-125
-131
-139
-153
-159
-165
-171
-177
-187
-191
-195
-197
-201
-203
-205
-207
-205
-205
-203
-203
-197
-191
-187
-181
-175
-167
-161
-143
-133
-123
-113
-103
-81
-69
-57
-45
-35
-13
-3
6
14
22
28
34
44
46
48
48
48
44
40
36
30
24
18
10
-3
-11
-19
-27
-35
-49
-55
-61
-65
-71
-75
-79
-85
-85
-87
-87
-87
-87
-85
-83
-81
-79
-73
-69
-67
-63
-61
-57
-53
-45
-41
-37
-31
-27
-15
-9
-3
4
12
20
28
46
56
66
76
86
108
120
130
140
150
168
176
184
192
198
202
210
210
212
210
208
204
198
192
186
178
172
164
146
138
130
122
112
96
90
82
76
70
60
56
52
50
46
44
42
40
40
38
38
36
36
36
36
36
36
38
40
44
48
52
56
58
72
78
82
94
106
92
118
144
132
118
168
218
152
246
340
472
606
930
1106
1282
1450
1620
1892
2164
2432
2472
2512
2298
2086
1912
1572
1232
824
416
0
-415
-877
-989
-1101
-1063
-1025
-641
-633
-627
-593
-559
-463
-417
-373
-341
-311
-325
-339
-301
-287
-275
-263
-253
-235
-229
-223
-215
-207
-199
-193
-183
-177
-173
-169
-165
-157
-153
-149
-145
-141
-135
-131
-129
-125
-123
-119
-117
-113
-109
-107
-105
-103
-97
-93
-89
-85
-81
-77
-73
-63
-57
-51
-45
-39
-27
-19
-13
-5
0
14
22
30
38
46
54
62
80
90
98
108
118
140
152
164
176
188
202
214
244
260
276
292
308
342
358
374
390
408
438
452
468
480
494
506
518
538
544
552
556
562
568
568
570
566
564
560
556
540
530
520
508
496
466
450
434
434
436
414
394
348
324
300
274
250
202
176
150
126
100
54
32
10
-9
-29
-39
-49
-75
-87
-99
-107
-117
-133
-139
-147
-153
-159
-163
-167
-175
-179
-183
-185
-189
-195
-197
-201
-203
-205
-211
-213
-215
-215
-217
-217
-219
-219
-217
-217
-215
-215
-209
-205
-203
-199
-195
-191
-187
-175
-169
-165
-159
-155
-145
-139
-133
-129
-125
-115
-111
-107
-103
-99
-95
-91
-85
-81
-77
-73
-71
-63
-59
-57
-53
-49
-45
-43
-37
-33
-31
-29
-29
-27
-27
-27
-29
-31
-37
-41
-45
-51
-57
-63
-69
-83
-89
-97
-105
-113
-129
-135
-143
-149
-155
-161
-167
-177
-181
-185
-187
-191
-197
-199
-201
-201
-203
-205
-207
-209
-209
-209
-209
-211
-211
-211
-211
-209
-209
-207
-205
-203
-199
-197
-193
-191
-181
-175
-171
-165
-161
-149
-143
-137
-131
-125
-119
-115
-105
-101
-97
-93
-91
-87
-87
-87
-87
-89
-93
-97
-101
-105
-109
-115
-121
-135
-141
-149
-155
-163
-179
-187
-195
-201
-209
-215
-223
-235
-239
-245
-249
-255
-261
-263
-265
-265
-265
-263
-261
-259
-255
-253
-249
-245
-235
-229
-225
-219
-215
-205
-199
-193
-189
-185
-181
-177
-169
-165
-163
-161
-159
-155
-153
-151
-149
-149
-145
-143
-143
-141
-141
-139
-139
-137
-137
-137
-135
-135
-137
-137
-137
-139
-141
-143
-145
-153
-157
-161
-165
-171
-183
-189
-195
-201
-209
-215
-223
-239
-245
-253
-259
-267
-279
-285
-293
-297
-303
-313
-317
-321
-323
-327
-329
-333
-337
-337
-339
-337
-337
-335
-333
-333
-329
-325
-317
-309
-295
-279
-265
-269
-275
-319
-281
-245
-187
-129
-189
-81
24
168
310
480
652
968
1102
1236
1590
1944
1858
1796
1734
1676
1620
1264
908
38
-399
-839
-1085
-1333
-1615
-1619
-1625
-1553
-1483
-1273
-1249
-1225
-1183
-1143
-1101
-1059
-993
-969
-945
-955
-965
-937
-925
-913
-903
-895
-889
-883
-875
-871
-867
-863
-861
-859
-857
-857
-857
-857
-859
-859
-861
-861
-863
-863
-865
-865
-865
-865
-863
-863
-857
-853
-851
-845
-841
-835
-829
-813
-803
-793
-781
-771
-743
-727
-713
-715
-717
-697
-679
-639
-617
-595
-571
-549
-499
-473
-447
-419
-393
-345
-315
-285
-253
-223
-191
-161
-101
-71
-43
-21
0
52
78
104
128
152
174
196
238
258
278
296
316
348
362
376
388
402
426
436
446
454
464
470
478
488
490
494
496
498
498
496
494
490
488
482
478
464
454
446
436
426
402
388
374
360
346
314
310
308
288
270
250
230
190
170
148
128
106
66
48
28
12
-3
-17
-31
-55
-65
-75
-83
-91
-103
-107
-113
-115
-119
-121
-121
-121
-119
-119
-117
-117
-113
-111
-109
-105
-103
-97
-95
-93
-89
-87
-83
-81
-73
-69
-65
-61
-57
-47
-41
-35
-27
-21
-13
-5
10
18
26
34
42
58
66
74
80
86
96
100
104
108
110
112
112
110
110
108
106
102
96
94
90
86
82
78
74
66
64
60
56
52
46
44
42
40
36
32
30
28
26
24
24
22
20
20
20
22
22
26
28
30
34
38
42
46
56
62
66
72
78
88
94
98
102
106
114
116
116
118
118
116
114
110
106
100
96
90
76
68
60
54
46
38
30
14
8
0
-5
-11
-21
-25
-31
-33
-37
-41
-41
-43
-43
-43
-43
-43
-41
-39
-39
-37
-35
-31
-29
-27
-25
-23
-19
-17
-13
-11
-9
-5
-3
0
2
4
6
6
8
8
10
10
10
10
10
8
8
8
8
6
4
4
4
4
4
4
4
8
10
10
14
16
20
24
26
28
30
32
32
34
34
34
32
30
24
20
16
12
6
-5
-11
-19
-25
-33
-39
-45
-57
-61
-67
-69
-73
-77
-77
-79
-77
-77
-75
-75
-69
-65
-63
-59
-57
-51
-47
-45
-43
-41
-35
-31
-29
-25
-23
-17
-13
-7
0
6
18
28
52
42
32
56
80
64
46
136
198
260
256
254
478
608
740
892
1046
1304
1502
1702
1900
2100
2012
1926
1732
1628
1524
1178
832
36
-309
-655
-815
-977
-1045
-1113
-1023
-847
-671
-611
-551
-405
-335
-267
-259
-251
-243
-237
-233
-223
-215
-205
-195
-191
-189
-187
-187
-187
-187
-189
-191
-195
-199
-203
-207
-217
-221
-225
-229
-233
-241
-243
-247
-249
-251
-251
-253
-253
-251
-249
-247
-245
-239
-235
-231
-225
-221
-209
-203
-197
-189
-183
-175
-167
-151
-141
-133
-123
-113
-91
-79
-67
-55
-43
-29
-15
12
28
42
58
74
106
122
138
154
170
200
214
230
244
258
270
284
310
320
330
340
350
366
372
378
382
388
392
396
400
400
402
402
402
400
398
396
392
390
382
376
372
364
358
350
344
326
316
308
296
286
262
248
234
220
192
176
170
152
132
114
94
54
34
12
-7
-29
-49
-71
-115
-135
-157
-177
-199
-237
-253
-269
-283
-299
-325
-337
-349
-359
-369
-377
-385
-399
-405
-411
-415
-419
-423
-425
-427
-427
-427
-425
-423
-419
-415
-411
-405
-401
-387
-379
-371
-361
-353
-331
-319
-309
-297
-285
-271
-259
-233
-219
-207
-195
-183
-159
-149
-139
-129
-121
-113
-107
-97
-93
-91
-89
-89
-91
-93
-95
-99
-103
-113
-119
-125
-131
-137
-141
-147
-159
-163
-167
-171
-175
-181
-181
-183
-183
-185
-183
-183
-177
-173
-171
-165
-161
-149
-141
-135
-127
-121
-105
-97
-89
-79
-71
-63
-55
-39
-31
-25
-19
-13
-3
0
2
6
8
10
12
12
12
12
12
10
6
4
2
0
-3
-5
-9
-17
-21
-25
-29
-33
-41
-45
-49
-53
-57
-63
-67
-71
-73
-77
-79
-81
-87
-87
-89
-91
-93
-93
-93
-93
-93
-93
-91
-91
-89
-87
-85
-81
-79
-75
-71
-67
-63
-61
-53
-47
-43
-39
-35
-31
-27
-19
-15
-11
-7
-3
2
4
6
8
8
10
10
8
8
6
6
4
0
-1
-5
-7
-9
-15
-17
-19
-21
-25
-27
-31
-35
-37
-41
-45
-49
-55
-59
-63
-67
-73
-77
-83
-93
-99
-105
-109
-115
-125
-129
-135
-139
-143
-149
-151
-155
-155
-157
-157
-157
-157
-155
-153
-151
-149
-147
-145
-143
-141
-139
-137
-135
-133
-131
-131
-129
-129
-125
-125
-127
-125
-123
-117
-111
-101
-87
-75
-81
-89
-141
-107
-75
-23
28
0
94
188
312
436
576
718
1044
1172
1300
1510
1722
2168
2026
1886
1890
1896
1602
1308
358
-103
-567
-829
-1091
-1357
-1323
-1291
-1151
-1011
-671
-529
-387
-353
-319
-269
-221
-299
-273
-249
-257
-267
-257
-255
-253
-255
-257
-257
-257
-259
-261
-263
-263
-265
-269
-271
-273
-273
-275
-275
-275
-275
-273
-273
-271
-271
-265
-261
-259
-255
-251
-241
-235
-229
-221
-215
-207
-199
-183
-173
-163
-151
-139
-115
-101
-87
-73
-59
-29
-11
4
20
36
44
52
90
108
126
144
162
220
236
250
266
280
296
326
338
352
366
380
404
416
428
440
452
462
474
496
506
516
524
534
552
560
568
574
582
594
598
602
604
608
610
612
610
606
604
600
596
582
572
562
550
540
526
514
486
470
454
448
444
406
386
368
348
328
290
270
252
234
216
200
182
146
128
110
92
72
36
18
-1
-19
-39
-59
-81
-111
-125
-139
-151
-163
-185
-193
-203
-209
-217
-227
-229
-233
-233
-235
-233
-233
-229
-225
-223
-217
-213
-201
-193
-187
-179
-171
-161
-153
-135
-125
-117
-107
-99
-81
-73
-67
-61
-55
-45
-41
-39
-37
-35
-35
-37
-41
-45
-49
-53
-57
-69
-75
-83
-89
-97
-103
-111
-123
-129
-137
-141
-147
-159
-163
-169
-173
-177
-181
-185
-193
-195
-199
-201
-205
-209
-209
-211
-211
-211
-211
-209
-207
-203
-201
-195
-191
-181
-173
-167
-159
-151
-135
-127
-119
-109
-101
-93
-85
-69
-61
-55
-49
-43
-35
-31
-29
-25
-23
-21
-21
-23
-23
-25
-25
-27
-33
-35
-39
-43
-47
-55
-59
-65
-69
-75
-81
-87
-99
-105
-113
-121
-129
-145
-153
-161
-169
-177
-193
-199
-207
-213
-221
-225
-231
-239
-241
-243
-243
-245
-243
-239
-237
-233
-229
-223
-219
-207
-201
-197
-191
-185
-177
-173
-171
-169
-167
-167
-169
-171
-173
-177
-181
-187
-197
-203
-209
-215
-221
-233
-237
-243
-247
-251
-253
-257
-259
-259
-261
-259
-259
-257
-255
-253
-249
-247
-245
-243
-237
-235
-235
-233
-231
-229
-229
-229
-229
-229
-229
-227
-227
-227
-227
-225
-225
-221
-217
-215
-211
-209
-201
-195
-191
-185
-179
-173
-167
-157
-153
-149
-145
-141
-137
-135
-135
-135
-137
-139
-141
-145
-147
-151
-153
-155
-157
-159
-161
-159
-157
-153
-143
-133
-149
-165
-141
-119
-155
-105
-57
-63
-71
100
210
320
450
580
880
1004
1130
1314
1500
1714
1928
1776
1684
1594
1494
1396
658
218
-219
-555
-893
-993
-1095
-1107
-1013
-919
-811
-705
-639
-593
-547
-499
-453
-377
-353
-331
-345
-361
-349
-337
-313
-303
-295
-289
-285
-279
-273
-269
-265
-261
-257
-253
-247
-243
-239
-235
-231
-221
-215
-211
-203
-197
-191
-185
-169
-161
-155
-147
-139
-121
-113
-105
-95
-87
-69
-61
-53
-43
-35
-27
-19
-1
6
12
20
28
40
46
52
58
62
66
70
74
76
78
80
80
80
80
80
80
80
80
80
80
82
82
86
88
94
100
104
110
116
130
138
146
154
162
172
180
198
214
222
230
246
252
258
264
270
278
280
282
284
286
284
284
280
276
272
266
260
244
234
224
212
200
186
172
138
142
144
124
102
58
34
8
-17
-43
-97
-121
-147
-181
-217
-239
-261
-311
-333
-357
-377
-397
-413
-425
-439
-449
-461
-469
-479
-493
-497
-503
-505
-509
-513
-513
-513
-511
-511
-507
-505
-497
-491
-485
-479
-473
-457
-447
-437
-427
-417
-395
-383
-371
-359
-347
-335
-323
-301
-289
-279
-269
-259
-243
-237
-231
-225
-219
-215
-213
-209
-209
-209
-209
-211
-215
-217
-221
-225
-229
-237
-241
-245
-249
-255
-259
-265
-273
-277
-283
-287
-291
-297
-299
-303
-305
-309
-309
-311
-313
-313
-313
-311
-311
-307
-303
-299
-295
-291
-281
-273
-267
-259
-253
-245
-239
-225
-217
-211
-203
-197
-185
-181
-177
-173
-169
-167
-165
-165
-165
-167
-169
-171
-177
-181
-185
-189
-195
-205
-209
-215
-219
-223
-227
-233
-241
-245
-249
-251
-255
-259
-259
-261
-261
-263
-263
-265
-265
-263
-263
-261
-261
-257
-255
-253
-249
-247
-243
-241
-233
-227
-223
-217
-213
-201
-195
-189
-181
-175
-161
-153
-147
-139
-133
-127
-121
-111
-105
-101
-97
-95
-93
-91
-91
-91
-93
-95
-97
-101
-103
-107
-109
-113
-119
-121
-125
-125
-127
-129
-127
-127
-125
-123
-119
-117
-107
-99
-93
-85
-77
-59
-49
-39
-27
-15
-3
8
32
46
58
70
82
106
118
128
138
148
166
172
178
184
188
190
192
192
192
190
186
182
170
164
156
148
140
132
122
104
94
84
74
64
44
36
26
18
8
-5
-11
-19
-23
-29
-31
-33
-35
-35
-37
-35
-33
-15
-29
-43
-25
-7
14
34
-25
18
62
128
192
360
378
396
532
668
832
996
1354
1498
1644
1920
2198
2578
2456
2334
2198
2062
1820
1328
838
394
-49
-373
-699
-981
-945
-909
-771
-635
-489
-465
-441
-399
-359
-323
-287
-241
-267
-295
-285
-275
-257
-251
-247
-245
-245
-245
-243
-241
-239
-239
-237
-237
-235
-233
-233
-231
-229
-225
-221
-217
-211
-207
-201
-195
-181
-173
-165
-155
-147
-129
-119
-111
-101
-93
-77
-69
-61
-55
-49
-43
-39
-31
-27
-25
-23
-21
-21
-19
-19
-19
-19
-19
-19
-17
-15
-13
-9
-7
2
8
14
22
28
46
58
68
80
92
106
118
144
158
172
188
202
228
242
258
272
286
300
314
342
354
368
380
392
416
426
436
444
452
458
466
474
474
476
474
474
464
454
444
428
414
442
418
394
390
388
346
306
214
168
122
76
28
-63
-107
-151
-191
-233
-269
-307
-377
-407
-437
-443
-449
-493
-511
-529
-537
-547
-571
-579
-587
-593
-601
-607
-613
-619
-619
-619
-619
-619
-613
-609
-605
-599
-593
-585
-579
-565
-555
-547
-539
-531
-513
-505
-497
-489
-481
-465
-457
-451
-445
-439
-433
-429
-421
-417
-415
-411
-409
-405
-403
-401
-399
-397
-395
-395
-393
-391
-391
-389
-387
-385
-383
-383
-381
-381
-379
-377
-377
-375
-373
-371
-371
-367
-363
-361
-357
-355
-349
-343
-339
-333
-327
-321
-315
-301
-293
-287
-279
-273
-257
-251
-245
-239
-233
-227
-223
-217
-215
-213
-211
-211
-211
-213
-215
-217
-219
-225
-227
-229
-231
-235
-235
-237
-241
-241
-241
-241
-241
-239
-237
-235
-233
-233
-231
-229
-223
-221
-219
-217
-215
-211
-207
-205
-201
-199
-191
-185
-181
-175
-169
-161
-155
-137
-125
-115
-103
-91
-65
-51
-37
-21
-7
8
22
54
70
84
98
112
140
154
166
178
190
208
218
228
236
244
252
260
274
280
288
294
300
314
320
326
332
340
346
352
366
374
382
388
396
412
420
428
436
444
460
468
476
484
492
500
508
526
536
546
554
564
586
596
608
618
630
640
652
674
684
696
706
716
732
738
746
750
756
758
762
764
762
762
758
756
748
742
738
730
724
712
704
698
692
686
680
674
662
658
654
650
646
640
638
638
636
636
638
640
646
650
654
662
670
682
694
706
700
694
744
736
730
778
828
804
780
934
1050
1168
1326
1484
1854
2044
2236
2522
2810
3042
3276
3466
3378
3292
3028
2764
2020
1578
1136
784
434
122
50
-21
2
24
136
246
250
264
280
298
316
364
386
410
412
416
426
436
456
462
470
476
482
490
492
496
498
502
508
512
516
520
524
530
538
552
562
572
582
594
620
634
648
662
678
692
708
738
752
766
778
792
816
824
834
842
850
854
860
868
870
872
872
874
874
872
872
872
872
872
874
876
878
882
886
890
902
910
918
928
938
962
974
988
1002
1016
1032
1048
1082
1088
1094
1112
1132
1170
1190
1210
1228
1248
1288
1306
1326
1348
1370
1384
1400
1428
1440
1452
1460
1470
1484
1486
1490
1488
1488
1486
1484
1468
1456
1446
1458
1472
1432
1406
1382
1372
1362
1290
1250
1212
1170
1130
1086
1044
958
916
874
834
796
722
688
656
626
598
588
578
532
512
492
482
474
450
442
434
426
418
408
404
402
402
402
402
402
406
408
412
414
418
426
428
432
434
436
438
440
440
438
438
436
434
426
422
418
412
406
398
392
376
368
360
352
344
328
320
314
306
300
288
282
276
270
266
262
258
250
246
244
240
238
232
230
230
228
226
226
226
226
226
226
228
230
234
238
242
244
248
258
262
266
270
274
278
282
288
290
292
292
294
294
292
290
286
284
280
276
266
260
254
248
242
230
224
218
212
198
194
190
188
184
182
178
176
176
174
174
172
174
174
174
176
176
178
180
184
186
188
192
194
200
204
208
212
220
224
230
234
238
242
246
254
256
260
262
264
268
266
266
264
264
260
258
250
244
240
232
226
212
198
192
184
176
168
152
144
136
130
122
108
102
96
92
86
76
72
68
66
62
60
56
54
54
54
56
56
60
64
68
74
80
88
94
110
120
130
140
150
172
184
194
204
212
232
240
250
256
264
268
274
280
282
284
284
284
280
276
274
270
266
262
258
248
242
236
230
226
216
210
204
200
192
188
184
180
176
174
170
164
164
162
162
160
162
164
166
172
176
182
186
204
216
228
218
210
250
272
294
292
292
364
408
452
508
566
584
604
738
832
926
1050
1176
1454
1596
1740
1864
1990
2246
2502
2660
2614
2570
2530
2492
1774
1336
900
490
80
-133
-349
-567
-541
-517
-347
-177
-181
-159
-139
-105
-73
-11
-19
-27
-9
6
20
34
62
76
88
100
110
136
150
164
178
190
204
216
242
254
268
280
294
318
328
340
350
360
376
382
390
394
400
404
408
414
414
416
416
418
418
418
418
416
416
416
416
416
416
416
418
420
424
426
430
434
438
450
456
462
470
478
486
496
518
528
540
554
568
598
614
630
630
630
648
668
712
734
758
782
808
860
884
910
928
948
980
992
1004
1014
1024
1030
1036
1040
1038
1036
1030
1024
1006
992
980
964
950
950
952
910
888
866
842
820
774
750
728
704
682
656
632
582
556
530
504
478
442
410
380
346
314
258
232
208
188
166
160
152
124
114
104
98
90
80
78
76
76
74
74
74
78
80
82
84
86
90
92
92
92
92
90
90
88
86
84
82
78
72
70
66
64
60
56
56
54
54
52
52
52
56
58
60
64
68
78
84
88
96
102
116
124
132
142
150
160
168
186
196
214
224
244
254
264
272
282
290
300
316
322
330
336
342
352
354
358
358
360
360
358
356
352
350
344
340
332
326
320
314
308
298
292
286
280
276
272
268
260
256
254
250
248
244
242
242
240
238
236
236
236
234
234
234
236
236
238
240
242
244
250
254
258
262
266
270
274
286
290
296
300
306
318
322
328
332
336
340
344
350
352
354
356
358
358
358
358
356
354
350
348
346
342
340
336
332
324
318
314
310
306
296
290
286
280
276
270
266
258
254
250
246
244
240
238
238
238
238
242
244
248
252
258
264
270
286
294
304
312
322
342
352
362
372
382
390
400
418
424
430
434
440
448
448
450
450
450
446
442
438
432
428
420
414
398
390
382
372
362
340
328
316
302
290
276
264
236
220
190
174
142
136
130
112
92
74
54
14
-5
-25
-43
-63
-99
-117
-135
-151
-169
-201
-217
-233
-255
-277
-293
-309
-339
-353
-367
-379
-393
-413
-425
-439
-445
-453
-455
-457
-461
-451
-443
-459
-475
-551
-513
-475
-417
-359
-397
-285
-175
-31
110
274
438
722
836
950
1290
1632
1468
1378
1288
1184
1082
722
362
-509
-827
-1147
-1361
-1577
-1719
-1673
-1629
-1509
-1389
-1391
-1365
-1339
-1303
-1267
-1231
-1197
-1143
-1137
-1131
-1111
-1091
-1069
-1057
-1045
-1037
-1029
-1021
-1015
-1005
-1001
-999
-997
-997
-997
-997
-997
-997
-999
-1001
-1001
-1003
-1003
-1003
-1001
-1001
-997
-995
-993
-989
-987
-979
-973
-969
-963
-959
-953
-947
-935
-927
-919
-911
-903
-885
-873
-863
-851
-839
-825
-813
-779
-783
-787
-765
-745
-697
-691
-685
-649
-613
-533
-491
-451
-409
-367
-325
-283
-205
-169
-135
-103
-71
-15
-9
-3
18
38
56
74
110
124
138
152
164
192
204
214
224
236
258
266
276
284
294
300
308
318
320
324
326
328
326
322
320
314
310
302
296
278
268
258
246
236
212
202
190
178
166
144
134
124
114
104
96
88
72
66
58
52
44
32
26
20
14
8
4
-1
-13
-19
-25
-31
-37
-49
-53
-59
-63
-69
-77
-81
-85
-87
-89
-89
-91
-93
-91
-89
-87
-85
-77
-71
-67
-59
-53
-45
-39
-21
-11
-1
10
20
42
54
64
76
88
100
110
132
142
150
160
168
182
188
194
200
204
208
208
210
210
210
208
202
200
196
192
186
174
168
162
156
148
142
134
120
112
104
96
88
74
66
58
52
44
32
26
20
16
12
10
6
4
4
4
6
8
16
22
26
32
38
46
54
72
82
90
100
110
128
138
148
158
166
182
190
198
204
210
216
222
232
236
240
244
248
256
258
260
262
266
268
270
274
274
276
278
280
282
282
282
282
284
284
284
284
284
284
282
282
280
280
280
278
278
278
276
276
276
278
278
280
282
284
286
288
292
300
304
308
312
318
322
328
338
342
348
352
358
364
366
370
372
374
376
374
374
372
370
366
364
356
352
348
342
338
328
324
320
316
312
308
306
302
300
300
298
298
298
298
298
298
300
300
300
300
298
298
296
296
294
292
290
286
284
280
276
274
270
268
266
264
262
260
260
260
260
262
262
264
266
268
270
272
274
274
276
276
276
276
274
274
272
272
270
270
270
272
274
272
272
280
290
300
310
322
294
318
342
316
290
394
468
542
538
536
656
778
1088
1264
1442
1592
1742
2322
2522
2722
2616
2510
2384
2260
2060
1566
1072
620
168
-503
-649
-797
-757
-717
-567
-419
-97
0
96
80
64
48
82
114
102
90
84
82
78
76
72
70
66
54
50
44
38
30
16
10
4
-1
-7
-11
-17
-25
-27
-31
-33
-35
-37
-37
-37
-37
-37
-35
-35
-35
-33
-33
-33
-33
-33
-33
-33
-33
-35
-37
-39
-41
-43
-45
-45
-47
-51
-53
-55
-57
-61
-65
-67
-69
-71
-75
-81
-83
-85
-89
-93
-95
-99
-105
-107
-111
-113
-115
-119
-121
-123
-123
-123
-121
-121
-119
-115
-111
-107
-103
-93
-85
-79
-71
-65
-49
-41
-33
-25
-17
-9
-3
10
16
20
26
30
34
36
36
36
36
34
30
22
16
8
0
-7
-27
-37
-49
-61
-75
-89
-103
-135
-149
-165
-181
-197
-231
-245
-261
-275
-291
-321
-333
-347
-357
-369
-379
-389
-405
-411
-419
-423
-429
-435
-437
-439
-439
-439
-439
-439
-435
-431
-427
-423
-419
-409
-403
-397
-389
-383
-367
-357
-347
-337
-327
-315
-305
-281
-267
-255
-241
-229
-203
-189
-177
-163
-151
-139
-127
-107
-97
-87
-79
-71
-59
-53
-49
-45
-43
-39
-37
-37
-37
-39
-39
-39
-43
-43
-45
-47
-49
-53
-53
-55
-57
-59
-59
-61
-63
-65
-67
-67
-69
-73
-73
-75
-77
-79
-83
-85
-87
-87
-89
-89
-91
-93
-93
-93
-91
-91
-89
-85
-83
-79
-77
-73
-69
-59
-55
-51
-45
-41
-33
-29
-25
-21
-19
-17
-15
-13
-11
-11
-11
-13
-15
-17
-19
-21
-23
-25
-27
-29
-29
-31
-33
-35
-35
-35
-37
-37
-37
-39
-39
-39
-39
-41
-41
-43
-45
-45
-47
-47
-49
-51
-51
-51
-51
-51
-47
-45
-43
-39
-37
-33
-29
-19
-13
-7
-1
4
14
20
26
32
36
40
44
48
50
52
52
50
46
44
40
34
28
16
10
2
-5
-13
-21
-29
-45
-51
-59
-65
-73
-83
-87
-93
-95
-99
-99
-101
-101
-99
-99
-95
-93
-85
-79
-75
-69
-63
-51
-45
-39
-33
-27
-21
-17
-9
-5
-1
0
2
4
4
2
0
-1
-5
-9
-21
-27
-35
-43
-53
-75
-87
-99
-111
-125
-139
-155
-187
-191
-195
-225
-257
-291
-307
-325
-341
-357
-387
-399
-411
-423
-437
-445
-453
-457
-457
-457
-477
-497
-469
-505
-541
-501
-461
-401
-343
-357
-247
-139
-1
134
448
586
726
838
950
1570
1518
1468
1398
1328
1254
1182
480
30
-421
-747
-1075
-1489
-1527
-1565
-1465
-1367
-1189
-1013
-969
-925
-883
-837
-793
-729
-715
-701
-735
-769
-747
-739
-733
-727
-723
-721
-719
-715
-709
-703
-697
-693
-681
-673
-667
-659
-651
-641
-633
-611
-599
-589
-575
-563
-537
-521
-507
-491
-477
-445
-441
-437
-417
-399
-379
-361
-321
-301
-283
-263
-243
-207
-185
-165
-149
-135
-119
-105
-77
-63
-51
-39
-27
-3
8
18
30
40
52
62
84
96
108
120
132
158
172
186
200
212
242
258
274
290
306
322
338
372
388
406
422
440
472
488
504
518
534
548
564
590
602
614
624
634
650
654
660
662
666
666
662
660
654
648
638
628
602
586
570
576
582
538
512
488
462
436
406
378
318
288
260
232
160
136
110
86
60
12
-7
-29
-43
-59
-73
-87
-113
-123
-133
-139
-147
-155
-157
-159
-159
-159
-155
-151
-141
-133
-127
-119
-111
-91
-79
-69
-59
-49
-27
-15
-5
4
14
24
32
48
56
62
68
72
80
82
82
84
84
84
82
78
76
72
70
66
58
54
50
48
44
40
36
28
26
22
20
16
10
8
4
2
-1
-5
-7
-11
-13
-17
-19
-21
-23
-23
-25
-25
-25
-21
-17
-15
-11
-7
-1
2
14
22
28
36
42
58
64
70
76
82
90
94
96
96
96
94
92
86
80
74
66
58
42
32
22
12
2
-7
-17
-37
-45
-55
-61
-69
-83
-87
-91
-95
-99
-103
-103
-105
-105
-105
-103
-103
-101
-99
-99
-97
-97
-93
-91
-89
-87
-85
-81
-79
-73
-69
-65
-61
-57
-47
-43
-39
-33
-29
-19
-13
-9
-5
-3
0
2
8
10
10
10
10
8
8
6
4
0
-1
-3
-9
-11
-15
-17
-21
-27
-29
-31
-31
-33
-33
-35
-37
-35
-35
-33
-33
-29
-27
-25
-21
-19
-11
-7
-5
-1
2
8
12
20
24
28
32
36
44
48
50
54
56
58
60
64
64
64
64
62
58
54
50
46
40
28
22
14
6
-3
-11
-21
-39
-47
-57
-65
-75
-91
-97
-103
-107
-111
-111
-113
-115
-111
-109
-99
-91
-73
-83
-95
-73
-53
-71
-31
8
66
122
102
80
268
398
530
692
854
1208
1376
1546
1806
2068
2232
2398
2486
2214
1942
1810
1678
904
466
28
-225
-479
-747
-729
-713
-605
-497
-429
-361
-313
-273
-233
-195
-157
-103
-115
-129
-117
-105
-93
-81
-65
-59
-55
-51
-49
-43
-41
-41
-41
-41
-41
-43
-45
-47
-49
-51
-53
-55
-53
-53
-51
-51
-45
-41
-37
-31
-25
-17
-9
8
18
28
40
50
72
82
92
102
110
118
126
136
140
142
144
144
140
136
132
128
122
108
102
94
86
78
72
64
54
50
46
44
40
40
42
44
48
50
56
62
78
88
98
108
118
142
156
168
182
196
222
236
252
266
280
292
306
332
344
356
366
376
394
400
408
412
416
416
418
414
410
406
398
392
368
352
336
344
352
304
300
298
262
226
188
148
60
16
-29
-73
-119
-205
-245
-285
-321
-357
-385
-415
-409
-429
-449
-461
-473
-497
-507
-517
-523
-531
-537
-545
-555
-559
-563
-565
-569
-571
-571
-573
-571
-571
-569
-567
-567
-563
-561
-557
-555
-549
-545
-543
-539
-535
-529
-525
-521
-517
-515
-511
-509
-503
-499
-495
-491
-489
-483
-481
-479
-475
-473
-467
-465
-463
-459
-457
-455
-455
-451
-451
-451
-449
-449
-451
-451
-451
-453
-455
-455
-457
-459
-461
-463
-463
-463
-465
-463
-463
-461
-461
-457
-453
-449
-445
-441
-435
-429
-417
-409
-403
-395
-387
-373
-365
-359
-351
-345
-339
-333
-323
-319
-315
-311
-309
-305
-303
-303
-303
-303
-305
-305
-307
-309
-311
-311
-313
-315
-315
-317
-315
-315
-313
-311
-311
-309
-307
-303
-301
-295
-291
-287
-283
-279
-273
-269
-265
-261
-257
-253
-251
-243
-239
-235
-231
-227
-219
-213
-209
-203
-197
-183
-175
-169
-161
-155
-147
-139
-123
-115
-109
-101
-95
-81
-75
-71
-67
-63
-61
-59
-57
-55
-55
-55
-57
-61
-63
-65
-67
-69
-71
-71
-73
-73
-73
-73
-73
-69
-65
-63
-59
-55
-47
-41
-37
-31
-27
-21
-17
-7
-3
0
4
8
12
14
16
16
16
16
14
12
10
8
4
0
-7
-13
-19
-25
-31
-47
-55
-63
-73
-83
-93
-103
-125
-137
-149
-159
-171
-195
-205
-217
-227
-237
-255
-261
-267
-271
-275
-277
-279
-281
-277
-273
-261
-249
-275
-249
-223
-225
-229
-235
-243
-131
-57
16
120
224
490
644
798
962
1128
1354
1582
1938
2038
2138
2132
2128
1886
1658
1432
1134
838
186
-63
-315
-489
-665
-733
-801
-753
-611
-469
-457
-447
-383
-343
-303
-265
-227
-197
-169
-211
-197
-183
-173
-163
-149
-143
-139
-137
-137
-131
-129
-127
-125
-123
-121
-119
-115
-113
-111
-107
-103
-95
-89
-83
-77
-71
-63
-57
-39
-31
-23
-13
-5
14
24
32
42
52
72
82
90
100
108
116
124
140
148
154
162
168
180
186
190
196
202
210
220
226
232
238
244
258
266
274
282
292
312
322
334
346
358
370
384
412
426
440
454
468
494
508
522
534
548
558
570
592
600
610
616
624
634
638
642
642
644
642
642
636
630
626
618
612
592
580
570
556
542
512
512
514
494
476
454
434
388
362
336
320
306
248
218
188
154
120
84
46
-33
-73
-113
-151
-191
-265
-273
-281
-303
-327
-337
-349
-361
-367
-375
-379
-383
-387
-385
-383
-379
-375
-363
-353
-345
-335
-325
-313
-301
-275
-261
-247
-233
-219
-189
-173
-159
-143
-129
-101
-87
-73
-59
-47
-35
-23
-1
8
16
24
32
44
50
54
58
60
62
64
66
66
66
66
64
60
60
58
56
54
50
48
46
44
42
42
42
42
42
42
44
46
52
56
58
64
68
76
82
96
104
112
122
132
152
164
174
186
196
216
240
250
260
268
278
296
302
310
314
320
326
326
328
326
326
322
320
308
300
294
284
274
252
238
224
210
196
180
164
160
140
120
98
76
32
10
-13
-35
-59
-105
-127
-151
-171
-193
-213
-235
-273
-291
-309
-325
-341
-369
-381
-393
-403
-415
-423
-433
-447
-451
-457
-459
-463
-467
-467
-469
-467
-467
-465
-463
-461
-459
-457
-455
-455
-455
-455
-455
-455
-457
-463
-465
-469
-473
-477
-481
-485
-495
-499
-503
-507
-511
-517
-519
-523
-525
-527
-531
-531
-533
-533
-535
-535
-537
-539
-539
-541
-543
-545
-549
-551
-555
-557
-561
-563
-567
-575
-579
-585
-591
-597
-609
-617
-625
-633
-643
-653
-663
-687
-699
-711
-723
-735
-761
-771
-783
-793
-805
-821
-825
-831
-833
-835
-833
-833
-823
-813
-803
-819
-837
-795
-767
-741
-737
-735
-699
-665
-581
-529
-479
-415
-353
-325
-231
-137
-23
90
336
452
568
652
738
958
1178
1210
1076
944
850
758
-273
-771
-1269
-1749
-2229
-2491
-2753
-2879
-2777
-2675
-2503
-2333
-2049
-2007
-1967
-1911
-1855
-1785
-1747
-1709
-1667
-1625
-1585
-1547
-1477
-1441
-1407
-1373
-1339
-1271
-1237
-1203
-1169
-1137
-1103
-1071
-997
-959
-923
-885
-849
-775
-739
-705
-673
-641
-621
-597
-575
-553
-531
-511
-491
-455
-437
-421
-403
-387
-355
-337
-321
-303
-285
-267
-251
-213
-195
-177
-153
-129
-97
-81
-65
-49
-35
-19
-5
22
36
50
64
78
106
122
136
152
166
198
198
198
214
232
252
272
316
340
364
388
414
466
492
518
544
570
596
622
670
694
718
740
762
802
822
842
860
880
914
928
944
956
970
980
992
1008
1014
1020
1022
1024
1024
1020
1016
1008
1000
990
980
952
934
918
920
924
876
850
824
796
770
718
692
668
644
620
598
578
552
538
524
510
498
478
470
464
458
452
448
446
444
444
444
446
448
456
460
466
472
478
490
496
504
512
520
528
536
552
560
568
574
582
596
602
610
616
624
630
636
646
650
656
660
666
674
676
680
682
684
686
688
690
690
692
690
690
688
686
684
680
678
672
668
664
660
658
654
650
644
642
640
638
636
636
636
638
640
642
644
648
658
664
672
680
688
704
714
724
734
746
768
778
790
800
810
820
832
850
858
866
874
882
892
896
902
904
908
910
912
912
912
912
910
908
904
900
898
894
892
884
880
876
872
868
864
860
850
846
842
836
832
820
814
808
802
796
788
782
770
762
756
750
744
732
726
722
718
714
710
708
708
708
708
710
712
718
722
726
730
734
742
746
750
752
756
756
758
756
754
752
748
744
730
722
714
704
696
686
676
654
642
630
618
608
584
572
562
550
540
520
508
498
488
478
466
456
434
422
412
400
390
368
358
348
338
328
318
308
292
284
278
272
266
256
252
250
248
248
248
250
254
258
262
268
274
286
294
302
314
328
322
340
360
380
400
386
372
440
488
538
604
670
678
790
904
1034
1166
1480
1606
1734
1942
2152
2374
2598
2342
2218
2096
1950
1806
1068
706
344
72
-199
-327
-457
-437
-257
-77
-85
-95
-49
-7
32
74
116
184
190
194
216
238
260
282
306
318
330
340
350
366
372
380
382
386
388
390
390
388
388
386
384
378
374
372
368
364
360
358
352
350
348
346
344
344
344
346
346
348
354
358
362
366
372
376
382
396
404
412
420
428
448
458
470
482
494
506
518
546
560
576
590
606
638
654
672
688
706
738
754
772
786
802
816
832
860
872
884
894
906
924
930
938
944
950
954
958
962
962
964
962
962
958
954
950
944
940
924
916
908
896
886
872
860
830
834
840
822
804
762
738
716
692
668
640
614
560
532
506
478
452
402
378
356
334
314
292
278
264
252
240
230
220
200
192
188
182
172
170
166
164
160
158
156
150
148
146
146
144
140
140
138
138
136
136
136
138
138
138
140
142
146
148
150
154
156
162
166
170
174
176
180
184
194
198
202
210
218
224
230
234
240
246
252
264
268
274
280
286
298
302
308
312
316
322
324
328
328
330
328
328
326
322
320
316
312
302
296
292
286
280
274
268
256
250
244
238
234
224
220
218
214
212
204
208
210
212
216
224
228
234
240
246
252
260
274
282
290
298
308
326
336
346
354
364
382
390
400
406
414
420
428
440
444
450
452
456
462
464
466
466
466
466
466
466
466
466
466
466
466
466
466
466
468
468
470
474
476
480
482
486
494
498
504
508
514
526
532
540
548
556
564
572
590
598
608
616
626
646
654
662
670
678
684
690
700
702
704
702
702
696
690
686
678
670
650
638
628
616
604
590
578
552
538
526
514
504
484
476
468
460
454
450
446
438
436
436
436
438
442
446
452
456
460
474
486
500
510
522
516
512
556
540
526
570
614
742
710
680
800
920
1080
1240
1608
1794
1980
2266
2552
2924
2998
3074
3002
2932
2482
2144
1806
1410
1014
656
298
-31
-105
-179
-147
-115
52
48
44
68
92
110
126
178
202
224
238
254
286
300
316
328
342
352
364
382
390
400
408
416
430
436
444
450
456
470
478
486
492
500
508
516
532
540
550
558
568
584
592
600
606
614
620
628
640
644
648
652
656
664
666
668
670
672
674
674
676
676
676
676
678
678
678
678
678
680
682
682
684
686
690
692
696
706
712
718
724
732
752
762
774
786
800
830
846
862
864
866
886
908
952
974
996
1018
1040
1074
1088
1102
1112
1124
1130
1138
1148
1148
1148
1144
1142
1128
1116
1104
1088
1072
1088
1064
1040
1024
1010
976
942
872
836
800
762
724
650
612
576
540
504
470
438
376
362
348
322
298
254
232
212
200
188
176
162
138
130
120
114
106
96
92
88
88
86
88
90
92
96
98
102
106
116
122
126
132
136
144
148
152
156
158
160
162
166
166
166
166
166
164
164
162
162
160
156
154
152
152
150
148
146
142
142
140
138
136
132
130
128
128
126
124
122
118
116
114
114
112
112
112
112
114
116
120
124
126
130
134
140
144
154
160
166
172
178
188
194
200
204
208
212
216
216
216
214
212
202
198
192
184
166
156
146
136
124
112
100
76
64
52
40
28
6
-3
-13
-21
-31
-37
-45
-55
-57
-61
-61
-63
-63
-59
-57
-53
-49
-43
-39
-25
-17
-9
-1
6
26
36
46
56
66
86
96
106
116
124
134
142
158
164
170
176
182
190
192
194
196
196
196
196
194
192
190
188
184
178
174
170
166
162
154
150
144
140
136
132
126
116
110
104
100
94
82
76
70
64
58
54
48
36
32
28
24
20
16
14
12
12
12
12
14
14
16
18
20
22
28
30
32
36
40
46
50
54
56
56
60
64
80
86
92
108
122
114
86
56
92
128
242
212
184
298
414
564
716
1056
1202
1350
1628
1906
2254
2168
2082
1990
1900
1796
1694
992
590
190
-155
-503
-821
-891
-961
-923
-887
-721
-555
-473
-407
-341
-271
-203
-123
-73
-23
0
22
92
96
100
122
142
146
150
168
174
180
184
186
190
190
188
186
184
180
176
166
162
156
152
146
138
134
130
128
124
120
120
118
120
120
122
122
128
134
138
144
148
162
172
180
190
198
208
220
244
258
272
286
302
332
348
366
372
380
420
438
458
476
494
514
536
568
582
598
612
628
654
666
680
690
702
712
724
742
750
758
764
772
784
788
792
794
798
800
800
800
798
798
794
790
780
774
768
760
752
732
720
710
698
686
672
658
628
612
596
592
588
552
534
516
496
478
458
440
400
378
358
334
312
266
240
216
192
166
112
86
58
32
4
-21
-49
-97
-119
-143
-161
-181
-195
-207
-219
-229
-239
-247
-255
-265
-269
-273
-275
-277
-277
-277
-277
-275
-273
-267
-263
-259
-255
-251
-245
-239
-227
-219
-211
-203
-195
-175
-165
-155
-143
-131
-119
-107
-81
-67
-55
-43
-31
-7
4
14
24
32
48
54
60
64
68
70
72
72
72
70
68
64
58
54
48
42
36
30
24
10
4
-3
-9
-17
-33
-41
-49
-55
-63
-79
-85
-93
-99
-107
-111
-117
-127
-129
-133
-135
-137
-137
-135
-133
-129
-127
-123
-119
-107
-101
-95
-87
-81
-67
-61
-55
-49
-45
-39
-35
-29
-27
-27
-27
-27
-31
-33
-37
-41
-45
-55
-61
-67
-73
-79
-85
-93
-105
-111
-119
-125
-133
-145
-151
-157
-163
-169
-175
-181
-191
-195
-199
-203
-207
-215
-217
-219
-221
-223
-223
-221
-221
-219
-217
-213
-209
-197
-189
-181
-171
-161
-139
-125
-113
-99
-85
-71
-57
-27
-13
0
14
26
48
58
66
72
78
84
84
84
82
78
74
68
52
44
34
24
12
-9
-21
-33
-43
-55
-65
-75
-95
-103
-111
-117
-125
-135
-139
-143
-145
-147
-147
-145
-143
-139
-137
-131
-125
-109
-99
-89
-75
-63
-35
-41
-47
-25
-5
22
48
66
110
152
164
174
290
362
434
532
632
760
890
1182
1352
1522
1662
1804
2258
2488
2720
2606
2492
2264
2132
2000
1624
1248
804
362
-291
-509
-729
-791
-853
-715
-541
-367
-351
-335
-293
-253
-155
-111
-69
-41
-13
-37
-15
6
26
46
78
98
118
132
144
160
176
218
232
246
260
286
298
312
324
336
346
358
378
386
394
400
408
418
422
426
428
432
436
436
438
438
440
440
440
438
438
438
438
440
442
444
446
448
452
456
460
472
478
486
494
504
526
538
552
566
582
576
594
614
634
656
678
702
752
778
804
828
854
914
944
974
1000
1026
1052
1078
1126
1148
1170
1176
1182
1206
1214
1224
1228
1234
1236
1238
1234
1228
1224
1214
1206
1182
1168
1154
1136
1120
1122
1100
1078
1054
1030
1004
980
926
904
884
854
824
762
730
698
666
636
614
592
540
516
492
470
450
428
414
402
390
380
362
356
350
346
342
340
338
336
336
336
336
336
338
338
338
338
338
336
336
332
328
326
322
318
308
300
294
286
280
266
258
250
242
236
228
220
200
194
188
182
170
166
160
156
152
148
144
136
134
130
128
126
122
122
120
120
120
124
126
128
132
136
140
144
156
164
170
178
184
198
204
210
216
224
230
236
244
246
250
252
254
254
252
252
250
248
244
242
234
228
224
220
216
204
200
196
190
182
178
174
170
166
162
158
150
148
144
142
138
134
132
130
130
130
132
132
138
142
144
150
156
170
178
184
194
202
220
228
238
248
258
268
278
296
304
314
322
330
346
352
360
366
374
380
386
400
406
412
418
424
438
444
450
456
462
474
480
486
492
498
502
508
518
520
524
526
530
534
534
536
536
538
536
536
532
530
530
526
524
520
518
516
514
514
512
512
514
514
516
518
520
526
528
532
536
540
548
552
556
558
562
564
566
570
570
570
568
568
566
564
564
562
560
560
560
558
560
564
564
566
584
572
560
582
606
564
614
666
634
602
698
796
1066
1230
1396
1572
1748
2076
2366
2658
2798
2938
2940
2942
2406
2252
2098
1754
1412
738
468
200
38
-123
-225
-189
-153
-29
94
108
120
184
220
258
256
256
304
296
290
296
304
306
308
304
300
296
290
284
266
256
246
234
222
200
188
176
164
152
142
130
110
100
90
82
72
54
46
38
30
22
14
6
-9
-17
-25
-33
-43
-59
-67
-75
-83
-91
-107
-113
-121
-127
-133
-137
-143
-151
-153
-157
-159
-161
-161
-159
-159
-157
-155
-151
-149
-143
-139
-135
-129
-125
-117
-111
-107
-101
-97
-91
-87
-77
-71
-67
-63
-59
-49
-43
-39
-33
-29
-21
-15
-11
-7
-3
2
6
12
16
20
22
24
28
28
28
28
26
24
20
12
6
-1
-9
-19
-39
-53
-67
-83
-99
-91
-113
-135
-159
-185
-197
-209
-277
-313
-349
-387
-427
-507
-547
-587
-625
-665
-701
-739
-803
-803
-805
-827
-849
-887
-899
-911
-923
-935
-955
-965
-975
-983
-991
-997
-1003
-1011
-1013
-1015
-1015
-1017
-1013
-1009
-1007
-1003
-999
-993
-987
-973
-965
-957
-947
-939
-923
-913
-905
-897
-891
-877
-871
-865
-859
-855
-851
-849
-847
-845
-845
-845
-847
-849
-851
-853
-855
-857
-857
-859
-861
-861
-861
-859
-857
-849
-843
-839
-829
-821
-811
-801
-773
-781
-791
-771
-753
-707
-679
-653
-637
-623
-545
-505
-467
-427
-387
-347
-309
-233
-197
-161
-127
-93
-29
2
32
48
64
88
112
152
160
166
178
190
212
220
226
232
240
242
244
246
248
250
252
256
258
260
262
264
272
276
280
284
288
292
298
308
314
320
324
330
338
342
346
348
352
358
358
360
362
364
364
366
368
370
372
374
376
382
386
390
394
400
406
412
426
434
442
450
460
476
484
494
500
508
520
524
530
532
534
534
534
528
522
518
510
502
482
470
458
444
430
416
402
374
358
344
330
318
292
280
270
260
252
244
236
226
222
220
218
216
218
220
224
228
234
248
258
268
278
290
302
316
304
322
342
364
388
446
446
446
484
522
566
612
724
790
856
876
896
1074
1186
1298
1422
1546
1786
1880
1976
2204
2434
2458
2482
2288
2180
2074
1692
1310
384
60
-265
-473
-683
-733
-783
-639
-497
-357
-345
-335
-267
-227
-189
-157
-125
-87
-97
-109
-91
-75
-53
-33
-9
2
12
22
30
52
62
70
78
86
94
100
110
114
118
122
124
124
124
124
122
120
114
110
106
102
98
94
90
80
76
72
70
66
60
58
56
54
52
50
48
46
46
44
44
44
42
42
42
44
44
46
46
52
56
60
68
74
90
100
110
124
136
166
162
158
180
200
222
246
296
320
346
370
394
440
452
464
478
492
502
514
530
536
542
544
546
544
540
538
530
524
506
494
484
470
456
440
426
426
406
388
368
348
304
280
256
230
182
156
102
74
46
20
-7
-59
-85
-111
-133
-157
-199
-217
-237
-245
-253
-267
-281
-303
-313
-323
-331
-341
-357
-363
-371
-377
-385
-391
-399
-415
-421
-429
-437
-447
-463
-471
-479
-487
-497
-511
-517
-525
-531
-539
-543
-547
-555
-557
-559
-559
-559
-557
-555
-553
-549
-545
-541
-537
-525
-517
-511
-503
-497
-481
-471
-463
-453
-443
-433
-423
-399
-387
-377
-365
-353
-327
-313
-301
-289
-277
-253
-241
-229
-219
-209
-199
-191
-175
-169
-165
-161
-157
-153
-153
-155
-157
-159
-163
-167
-177
-183
-191
-197
-205
-221
-227
-235
-241
-249
-261
-267
-273
-277
-281
-283
-287
-291
-291
-293
-291
-291
-291
-289
-287
-285
-285
-283
-281
-277
-275
-273
-271
-269
-265
-263
-261
-257
-255
-249
-245
-241
-237
-233
-227
-223
-215
-209
-205
-201
-197
-189
-185
-183
-181
-181
-179
-179
-179
-179
-181
-183
-185
-191
-193
-197
-199
-201
-207
-207
-209
-209
-211
-211
-211
-209
-205
-203
-199
-197
-187
-181
-177
-169
-163
-155
-147
-131
-121
-113
-103
-95
-75
-65
-57
-47
-37
-27
-17
-1
6
14
20
26
36
40
44
46
46
44
42
40
36
30
24
18
2
-5
-15
-25
-37
-59
-71
-83
-95
-107
-117
-129
-151
-161
-171
-179
-189
-203
-207
-213
-215
-219
-219
-217
-217
-211
-207
-195
-185
-165
-173
-183
-159
-137
-161
-117
-73
-9
52
36
18
236
378
520
684
850
1136
1406
1676
1864
2052
1880
1788
1698
1592
1486
1124
764
-81
-351
-623
-781
-941
-951
-853
-755
-661
-567
-571
-577
-553
-485
-417
-395
-373
-403
-397
-391
-379
-367
-347
-341
-337
-333
-331
-325
-321
-311
-307
-303
-299
-297
-289
-283
-279
-273
-269
-263
-259
-247
-239
-231
-223
-215
-197
-187
-179
-167
-157
-145
-135
-113
-101
-89
-77
-67
-45
-33
-23
-13
-5
10
18
24
30
36
42
46
54
58
60
64
66
72
76
78
82
86
92
96
108
116
122
130
138
158
170
180
192
202
226
238
252
264
278
292
308
336
350
366
382
398
428
442
458
472
488
502
516
540
550
562
570
578
588
590
592
590
590
578
566
556
574
594
574
554
504
492
480
440
402
318
276
234
192
150
110
68
-11
-47
-85
-119
-155
-219
-227
-237
-259
-283
-321
-329
-337
-349
-361
-369
-377
-393
-399
-405
-409
-413
-417
-417
-417
-417
-417
-415
-413
-407
-403
-399
-393
-389
-377
-371
-365
-359
-353
-345
-339
-327
-319
-313
-307
-303
-293
-289
-285
-283
-281
-279
-279
-281
-283
-285
-289
-293
-301
-307
-313
-319
-327
-341
-347
-355
-361
-367
-373
-381
-391
-395
-401
-403
-407
-411
-411
-413
-413
-413
-409
-405
-403
-397
-393
-387
-381
-367
-359
-351
-341
-333
-315
-305
-295
-285
-275
-265
-257
-239
-231
-223
-215
-209
-199
-195
-193
-191
-191
-191
-193
-197
-201
-205
-211
-217
-231
-239
-247
-255
-263
-281
-287
-295
-301
-309
-315
-321
-331
-333
-335
-335
-337
-337
-333
-331
-327
-323
-313
-307
-301
-293
-285
-277
-269
-249
-239
-231
-221
-211
-191
-181
-171
-161
-151
-141
-133
-115
-107
-99
-93
-87
-75
-69
-65
-61
-57
-53
-51
-47
-45
-43
-41
-39
-37
-35
-35
-33
-33
-31
-29
-29
-27
-27
-27
-27
-29
-29
-31
-33
-35
-41
-45
-49
-55
-61
-67
-73
-85
-91
-99
-105
-113
-125
-129
-133
-135
-139
-141
-139
-139
-135
-133
-127
-123
-107
-97
-89
-77
-67
-43
-31
-19
-5
8
22
36
64
80
94
108
120
148
166
182
196
208
218
236
256
250
244
278
312
416
384
354
444
534
792
950
1108
1254
1402
1526
1652
2310
2268
2226
2162
2098
1982
1626
1270
840
410
-381
-583
-787
-885
-985
-955
-925
-579
-565
-553
-483
-413
-291
-241
-193
-183
-175
-143
-113
-107
-95
-85
-73
-61
-47
-41
-37
-33
-31
-29
-29
-29
-31
-35
-37
-41
-51
-55
-61
-65
-71
-83
-87
-93
-97
-103
-107
-113
-123
-127
-131
-133
-137
-141
-143
-145
-145
-147
-147
-147
-143
-139
-135
-129
-125
-109
-99
-89
-77
-67
-37
-43
-51
-31
-11
12
36
88
108
128
166
202
276
310
346
376
408
416
424
472
492
514
532
552
576
588
602
612
624
644
652
660
666
672
676
680
684
684
684
682
680
672
666
662
654
648
638
630
610
598
588
574
562
536
520
506
492
478
448
432
418
402
388
372
358
330
316
302
288
274
246
232
220
194
182
168
142
130
116
104
90
66
54
42
30
18
8
-3
-25
-35
-45
-53
-63
-79
-87
-95
-101
-109
-121
-127
-133
-137
-143
-147
-153
-161
-165
-169
-173
-177
-185
-189
-193
-195
-199
-201
-205
-209
-211
-213
-213
-215
-213
-211
-211
-209
-207
-199
-193
-189
-181
-175
-167
-161
-143
-133
-125
-115
-105
-85
-75
-65
-55
-45
-35
-27
-9
-1
4
10
16
26
30
34
36
38
42
44
44
46
46
46
46
44
44
44
46
46
46
48
50
54
56
60
64
74
82
88
98
106
126
138
148
162
174
202
216
230
246
262
278
294
326
340
356
370
384
410
422
434
444
454
460
468
480
482
486
486
488
486
482
480
474
470
464
458
442
432
422
412
402
380
368
358
346
334
312
300
288
276
264
252
242
220
210
200
190
180
162
154
144
136
128
122
116
106
104
100
98
96
96
100
102
106
110
122
130
138
148
156
166
176
196
216
226
236
256
264
272
278
284
288
294
300
300
302
300
300
294
290
286
280
276
262
254
248
240
234
226
218
200
192
186
178
164
158
152
146
140
136
130
122
118
114
112
110
110
112
112
112
112
120
128
136
150
164
156
148
184
162
140
176
212
316
382
448
468
490
604
720
976
1098
1222
1278
1336
1832
1870
1908
1846
1786
1728
1672
1062
622
182
-245
-675
-1175
-1315
-1455
-1451
-1449
-1253
-1157
-1061
-1039
-1017
-979
-941
-863
-833
-803
-783
-765
-759
-737
-715
-693
-673
-653
-635
-599
-575
-551
-539
-527
-483
-467
-451
-437
-423
-397
-385
-373
-363
-353
-343
-335
-319
-313
-307
-301
-295
-287
-283
-279
-275
-273
-269
-267
-261
-257
-253
-249
-245
-237
-231
-225
-219
-213
-199
-191
-183
-173
-165
-155
-147
-125
-113
-103
-89
-77
-51
-37
-25
-9
4
20
34
66
82
98
104
110
146
166
184
202
220
268
284
300
314
330
344
358
384
394
406
414
424
438
442
446
448
450
450
450
444
438
432
424
416
396
382
370
354
340
342
344
306
284
264
242
220
174
150
124
98
70
18
-5
-31
-59
-89
-119
-151
-211
-239
-269
-291
-313
-365
-389
-415
-439
-463
-485
-509
-553
-573
-595
-617
-639
-679
-699
-721
-741
-763
-803
-823
-845
-865
-885
-903
-921
-951
-965
-979
-991
-1003
-1023
-1031
-1039
-1045
-1051
-1055
-1061
-1067
-1069
-1073
-1075
-1077
-1081
-1083
-1085
-1087
-1089
-1097
-1101
-1105
-1111
-1117
-1123
-1129
-1143
-1149
-1157
-1163
-1171
-1185
-1191
-1197
-1201
-1207
-1209
-1213
-1217
-1217
-1217
-1215
-1215
-1211
-1207
-1205
-1201
-1199
-1191
-1187
-1183
-1179
-1175
-1171
-1167
-1161
-1157
-1155
-1151
-1149
-1145
-1141
-1139
-1137
-1135
-1133
-1131
-1125
-1121
-1119
-1115
-1113
-1107
-1103
-1101
-1097
-1095
-1091
-1087
-1079
-1075
-1071
-1067
-1063
-1053
-1047
-1043
-1037
-1031
-1017
-1009
-1003
-993
-985
-975
-967
-947
-935
-925
-913
-901
-879
-867
-855
-843
-831
-819
-809
-789
-779
-771
-763
-755
-743
-739
-735
-731
-729
-727
-727
-727
-727
-729
-731
-735
-739
-741
-745
-747
-751
-757
-759
-761
-761
-763
-763
-763
-759
-757
-755
-749
-745
-733
-725
-719
-709
-699
-677
-663
-651
-635
-621
-603
-587
-587
-567
-547
-525
-503
-457
-433
-409
-383
-359
-335
-311
-263
-239
-217
-197
-177
-153
-139
-127
-115
-105
-89
-83
-79
-75
-71
-69
-69
-71
-73
-75
-77
-81
-87
-91
-95
-99
-103
-105
-109
-115
-117
-119
-119
-121
-121
-119
-117
-115
-113
-109
-105
-95
-87
-81
-73
-67
-45
-35
-25
-9
4
-3
22
46
46
44
86
128
106
178
248
340
434
666
802
940
1096
1252
1414
1576
1906
2116
2326
2480
2636
2386
2252
2118
1994
1870
992
550
110
-227
-565
-693
-821
-911
-861
-811
-681
-553
-501
-457
-415
-333
-251
-237
-223
-151
-155
-159
-135
-111
-71
-55
-41
-27
-13
10
24
38
52
64
78
90
114
128
140
154
166
190
202
214
226
240
252
264
290
302
314
326
340
364
376
388
400
414
438
450
464
476
490
502
514
540
554
568
580
594
622
634
648
662
678
692
706
736
752
768
772
776
808
826
844
862
882
902
922
966
990
1014
1040
1066
1120
1140
1160
1190
1220
1284
1316
1350
1384
1420
1454
1490
1556
1568
1580
1590
1602
1630
1640
1652
1656
1662
1664
1666
1662
1656
1652
1642
1632
1606
1614
1622
1600
1580
1530
1514
1500
1466
1434
1400
1366
1294
1258
1222
1186
1150
1082
1048
1016
984
954
924
894
860
834
810
788
768
748
734
722
712
702
686
680
676
672
668
666
664
662
660
660
660
660
658
656
656
652
650
646
644
632
626
620
612
604
588
578
568
558
548
528
518
508
498
488
478
468
450
440
432
424
416
400
392
384
376
368
360
352
336
328
320
310
302
286
276
268
258
250
242
234
218
212
200
192
180
174
168
164
158
148
144
138
134
128
122
116
104
98
90
82
72
54
46
36
26
14
4
-7
-27
-37
-49
-57
-67
-85
-91
-97
-103
-109
-115
-117
-119
-119
-121
-119
-117
-113
-109
-107
-103
-99
-89
-83
-79
-73
-69
-63
-57
-45
-37
-31
-23
-17
-3
4
12
20
26
40
48
56
62
68
76
82
92
96
100
104
108
114
116
116
118
118
118
118
118
118
116
116
114
112
112
112
112
112
112
112
112
112
112
112
112
112
112
112
112
110
106
104
102
100
98
96
92
84
82
78
76
72
66
64
62
62
62
62
62
64
68
70
74
76
86
92
96
102
106
116
122
126
132
136
142
146
154
158
162
168
172
178
186
192
196
198
216
204
224
246
232
218
308
272
236
320
406
658
804
950
1124
1298
1462
1628
2062
2282
2504
2518
2534
2022
1886
1750
1402
1056
696
338
-249
-429
-611
-661
-713
-603
-443
-285
-267
-249
-167
-121
-75
-35
4
32
60
-5
6
18
28
36
42
42
42
40
38
36
34
30
28
24
20
16
8
6
2
0
-3
-9
-11
-13
-13
-15
-15
-15
-13
-11
-11
-7
-5
0
6
10
18
24
32
38
56
68
78
90
100
126
140
152
166
180
194
208
236
250
264
278
292
318
330
342
352
364
384
394
404
412
422
430
438
456
464
472
480
490
508
518
528
538
548
558
570
592
602
614
624
636
658
666
676
684
692
704
708
712
714
716
716
716
710
704
700
692
686
666
654
644
630
618
602
586
554
550
548
528
510
468
446
426
404
382
336
312
290
266
244
222
200
154
132
110
88
66
22
2
-19
-37
-57
-71
-87
-115
-127
-139
-149
-159
-175
-181
-187
-189
-193
-195
-193
-193
-189
-187
-181
-177
-165
-157
-149
-139
-131
-111
-99
-89
-77
-65
-53
-41
-13
0
12
26
40
70
86
100
116
132
148
164
196
202
208
226
244
280
298
316
334
352
388
410
432
448
464
478
494
520
532
546
556
568
588
596
604
612
620
626
632
640
644
650
652
656
664
666
670
672
676
684
688
692
696
702
706
712
724
730
736
740
746
756
760
764
766
770
770
770
766
762
760
752
744
722
736
750
730
712
664
660
656
614
574
528
484
394
350
306
264
224
154
154
152
130
106
102
98
76
70
64
62
60
58
60
62
68
74
88
98
108
120
130
142
152
178
192
204
214
226
252
262
274
284
294
302
312
326
332
338
342
346
352
352
352
352
352
350
348
342
338
334
330
326
316
312
308
304
300
294
292
292
292
294
296
300
306
312
320
332
346
374
364
356
382
408
394
382
476
538
602
612
624
832
952
1074
1204
1336
1586
1804
2022
2134
2248
2260
2274
2066
1940
1814
1464
1116
404
124
-155
-315
-477
-513
-549
-449
-337
-227
-215
-203
-139
-103
-67
-37
-7
-25
-13
-1
12
24
36
48
66
76
84
94
104
124
136
146
158
170
182
194
218
232
246
260
276
306
322
338
352
368
400
416
434
442
450
464
480
512
528
546
564
582
620
640
660
682
704
726
748
792
814
836
858
880
922
942
964
984
1004
1022
1042
1082
1102
1122
1142
1164
1208
1232
1256
1282
1308
1336
1366
1398
1432
1466
1502
1540
1614
1650
1686
1720
1754
1814
1840
1868
1892
1918
1940
1964
2012
2036
2062
2088
2116
2176
2208
2240
2274
2308
2358
2382
2408
2418
2428
2442
2456
2476
2482
2488
2490
2492
2486
2478
2470
2456
2444
2456
2470
2422
2418
2414
2378
2342
2260
2214
2170
2122
2074
1978
1930
1884
1840
1796
1754
1714
1642
1612
1582
1582
1584
1544
1536
1530
1518
1508
1502
1496
1488
1484
1480
1478
1478
1480
1480
1482
1484
1488
1494
1496
1500
1502
1504
1506
1508
1508
1506
1506
1502
1500
1492
1484
1478
1468
1460
1450
1440
1414
1398
1384
1368
1352
1350
1330
1310
1288
1268
1246
1224
1180
1158
1138
1116
1096
1054
1034
1014
994
974
936
916
898
878
860
840
822
782
762
742
720
700
658
636
614
592
570
548
526
482
460
440
420
400
364
346
330
316
302
274
260
248
236
226
216
188
180
170
162
152
138
132
124
118
112
108
102
94
92
88
86
84
82
82
82
84
84
86
90
92
94
96
100
104
110
114
118
122
126
136
142
146
152
156
162
166
178
186
192
200
218
224
232
238
246
258
264
270
274
278
280
284
286
284
284
280
278
268
260
254
246
238
228
218
198
188
176
164
152
128
116
104
94
82
72
60
40
32
22
14
6
-9
-15
-21
-25
-31
-37
-37
-39
-41
-43
-39
-37
-23
-15
-9
4
18
2
-13
-29
8
46
104
162
112
300
434
570
908
1096
1284
1464
1644
2258
2422
2588
2620
2652
2528
2404
1878
1532
1186
830
474
-107
-293
-481
-563
-645
-651
-657
-455
-425
-397
-399
-403
-371
-347
-323
-297
-273
-237
-223
-211
-197
-183
-169
-155
-133
-121
-111
-101
-91
-73
-63
-55
-45
-35
-25
-17
2
14
24
36
46
70
82
94
108
120
144
158
170
184
196
218
244
254
266
276
288
310
320
330
338
348
356
364
380
386
394
400
406
418
424
430
436
442
448
454
466
472
480
488
496
514
524
534
546
558
586
600
614
630
646
662
680
692
712
734
754
774
816
830
846
858
872
882
894
912
918
924
926
928
928
922
918
912
906
886
872
858
864
872
850
830
780
766
754
722
690
620
582
546
508
470
430
392
312
274
236
202
166
98
68
38
30
22
-25
-45
-67
-85
-105
-123
-141
-169
-183
-197
-209
-223
-245
-255
-265
-273
-283
-289
-297
-309
-313
-319
-323
-327
-335
-337
-339
-341
-345
-349
-351
-355
-357
-359
-363
-367
-373
-377
-381
-385
-391
-401
-405
-411
-415
-421
-427
-433
-443
-447
-453
-457
-461
-471
-475
-479
-483
-489
-493
-497
-507
-511
-515
-519
-525
-533
-537
-541
-545
-549
-555
-557
-559
-559
-561
-559
-559
-555
-551
-547
-541
-535
-521
-513
-505
-495
-487
-477
-467
-449
-439
-431
-423
-417
-405
-401
-397
-395
-393
-391
-391
-393
-395
-399
-401
-405
-413
-415
-419
-421
-425
-429
-429
-431
-431
-431
-429
-429
-425
-421
-419
-417
-415
-409
-407
-405
-403
-403
-403
-403
-405
-407
-411
-415
-419
-427
-431
-437
-443
-449
-461
-465
-471
-475
-481
-485
-489
-497
-499
-501
-503
-507
-511
-511
-513
-515
-517
-521
-523
-527
-529
-533
-537
-541
-551
-557
-565
-571
-579
-597
-607
-617
-627
-639
-649
-661
-687
-699
-713
-727
-741
-767
-781
-795
-809
-823
-835
-849
-873
-883
-895
-905
-915
-933
-941
-949
-955
-963
-973
-977
-983
-987
-991
-993
-997
-1001
-1001
-1001
-1001
-1001
-997
-997
-997
-993
-991
-983
-975
-959
-965
-973
-955
-937
-993
-955
-917
-859
-803
-815
-711
-609
-477
-347
-195
-43
278
404
532
788
1044
1348
1216
1086
954
824
672
522
-265
-683
-1103
-1329
-1557
-1773
-1733
-1693
-1507
-1323
-1309
-1273
-1237
-1139
-1043
-1031
-1019
-947
-915
-885
-853
-821
-761
-741
-721
-695
-671
-649
-627
-589
-577
-565
-551
-537
-511
-501
-491
-481
-471
-455
-447
-439
-431
-425
-417
-411
-397
-389
-383
-375
-367
-351
-341
-333
-323
-315
-305
-297
-279
-271
-263
-255
-247
-233
-225
-219
-213
-209
-203
-199
-191
-187
-183
-179
-175
-167
-163
-159
-153
-147
-135
-127
-121
-111
-103
-93
-83
-61
-49
-37
-25
-13
12
24
36
50
62
74
86
108
118
128
138
146
162
170
176
182
186
194
196
198
198
198
198
196
190
186
180
174
166
148
138
128
118
106
94
80
54
40
24
10
-3
-31
-43
-57
-67
-79
-101
-109
-119
-125
-131
-135
-141
-149
-149
-151
-151
-153
-151
-149
-149
-147
-145
-143
-143
-141
-141
-141
-141
-143
-145
-145
-147
-149
-151
-155
-157
-159
-159
-161
-161
-163
-165
-165
-165
-163
-163
-159
-157
-155
-151
-149
-145
-141
-135
-131
-127
-121
-117
-109
-103
-99
-93
-89
-83
-79
-69
-63
-57
-51
-47
-35
-29
-25
-19
-15
-3
0
4
8
12
16
20
26
28
30
32
32
34
34
34
34
32
30
28
24
22
18
14
10
0
-3
-9
-15
-21
-33
-41
-49
-55
-63
-71
-79
-97
-105
-113
-121
-129
-145
-151
-159
-165
-171
-175
-181
-189
-191
-193
-193
-195
-193
-189
-187
-183
-181
-171
-165
-159
-153
-149
-143
-137
-127
-121
-117
-113
-111
-107
-107
-107
-107
-109
-111
-115
-123
-127
-133
-139
-145
-159
-165
-171
-177
-183
-193
-197
-201
-203
-207
-207
-209
-209
-207
-205
-201
-199
-189
-183
-177
-171
-165
-157
-149
-135
-127
-119
-111
-103
-87
-79
-73
-65
-59
-51
-45
-33
-27
-23
-17
-13
-3
0
4
8
10
16
18
20
22
22
22
22
22
22
20
20
18
14
12
10
10
8
8
6
6
8
8
12
14
26
32
38
50
60
90
106
122
116
108
136
162
160
204
246
304
362
372
462
554
666
780
912
1044
1340
1468
1596
1770
1944
2330
2294
2258
2192
2128
2016
1666
1318
904
490
138
-213
-441
-455
-469
-371
-273
-53
-63
-73
-57
-41
-17
6
58
60
62
70
76
92
100
108
114
120
128
132
134
138
142
146
150
160
166
172
178
184
198
212
220
228
236
246
266
276
286
296
308
330
342
354
366
378
390
402
426
438
450
462
474
496
506
518
528
538
556
564
574
580
588
594
602
614
620
626
632
638
648
654
660
666
674
680
688
704
712
722
732
742
764
776
788
800
814
840
854
868
880
894
908
922
950
962
976
988
1000
1022
1030
1040
1048
1056
1062
1068
1076
1076
1076
1074
1072
1066
1058
1052
1040
1030
1000
1008
1016
992
968
970
972
900
858
816
770
724
624
572
522
474
426
380
334
252
218
184
156
126
130
110
88
70
52
28
16
4
-3
-13
-21
-31
-47
-51
-57
-61
-65
-69
-69
-69
-67
-65
-61
-57
-45
-37
-31
-21
-11
8
20
32
46
58
72
84
108
122
134
146
158
180
190
200
214
230
236
242
246
252
256
260
266
268
270
270
272
274
274
274
274
274
274
274
274
274
274
274
274
276
276
278
280
284
290
294
300
306
312
318
326
342
350
360
370
380
400
408
418
428
438
446
456
472
478
484
490
496
506
508
512
514
518
520
522
524
524
526
526
528
530
532
534
536
538
540
542
546
548
550
552
554
558
560
562
562
564
566
566
568
568
568
568
568
568
568
568
568
570
572
574
576
578
580
588
592
598
604
610
616
624
638
646
654
662
670
686
694
702
708
716
722
728
740
744
748
752
756
762
764
766
766
768
770
770
770
768
768
766
766
762
760
758
756
754
748
744
742
738
736
732
728
722
718
716
714
712
710
708
708
708
708
712
714
716
720
724
728
732
742
746
752
756
762
772
776
782
786
792
796
800
810
814
818
824
832
840
846
854
866
878
906
896
888
912
938
914
892
986
1048
1110
1120
1132
1370
1502
1636
1764
1892
1992
2094
2534
2566
2598
2516
2436
2278
1920
1562
1138
716
32
-209
-453
-559
-665
-653
-641
-319
-321
-323
-295
-269
-187
-145
-103
-67
-33
-29
-27
20
44
66
86
104
132
144
156
168
180
192
202
216
222
230
236
242
252
256
260
264
268
274
276
280
282
284
286
290
296
298
302
304
308
316
320
324
328
332
336
342
352
358
364
370
378
392
400
410
418
428
450
460
472
482
494
506
518
542
554
566
576
588
606
614
624
632
640
646
652
664
668
672
676
682
690
694
698
702
706
714
718
724
728
732
736
742
748
750
754
756
758
758
754
752
748
744
736
730
712
700
690
676
664
634
618
602
584
568
536
518
502
486
470
454
440
414
400
388
376
366
346
336
328
320
312
304
298
284
276
270
264
258
244
238
234
228
222
216
212
204
202
200
198
198
200
202
204
214
220
226
232
238
246
254
270
278
286
294
302
318
324
332
338
346
352
358
370
376
382
386
392
404
410
416
422
428
442
448
454
460
468
474
482
496
500
506
510
516
524
526
530
530
532
532
534
534
532
532
530
530
528
528
528
528
528
528
530
532
534
536
538
542
550
552
556
560
564
572
574
578
580
584
586
590
594
596
598
600
602
604
606
608
610
612
616
618
620
622
624
626
630
636
638
640
642
646
648
648
650
650
650
648
648
644
640
636
630
626
616
608
602
594
588
580
572
556
548
540
532
526
512
506
500
494
490
484
480
478
478
478
478
478
484
486
490
496
502
514
522
530
538
548
558
568
588
598
610
620
632
654
664
674
682
692
708
714
720
724
728
728
730
730
726
722
716
712
696
686
676
664
652
638
624
594
578
562
546
530
496
480
464
448
432
402
388
376
362
350
338
328
310
302
294
286
280
270
266
264
262
260
260
260
264
268
272
276
280
294
304
316
326
338
330
350
370
360
352
390
428
538
522
506
594
682
930
1076
1224
1398
1574
1744
1914
2348
2588
2830
2868
2908
2360
2224
2088
1706
1326
892
458
-239
-387
-535
-599
-663
-589
-459
-331
-317
-303
-235
-191
-149
-109
-69
-37
-5
-3
20
42
62
82
108
122
134
144
154
166
176
192
200
210
216
226
230
234
236
240
246
248
250
252
254
254
256
258
258
258
258
260
262
262
262
262
264
264
266
268
270
272
274
276
282
286
290
294
298
310
316
324
332
340
348
358
380
392
404
418
432
462
462
462
480
500
520
542
584
606
630
652
676
720
740
762
776
792
820
830
842
850
860
864
870
874
872
872
868
864
848
836
826
812
798
782
766
770
748
728
704
682
632
606
580
552
526
502
478
424
396
370
340
310
248
214
182
148
112
42
24
6
-17
-43
-65
-87
-127
-137
-149
-163
-177
-201
-211
-223
-231
-241
-249
-259
-273
-279
-287
-293
-299
-311
-315
-321
-327
-333
-343
-347
-351
-355
-359
-363
-367
-373
-375
-377
-379
-381
-383
-383
-385
-385
-385
-383
-383
-381
-379
-379
-377
-375
-371
-369
-367
-363
-361
-353
-347
-343
-337
-331
-323
-317
-301
-293
-285
-275
-265
-243
-231
-221
-209
-199
-187
-177
-155
-145
-137
-129
-121
-109
-103
-99
-97
-95
-93
-95
-97
-99
-101
-105
-109
-117
-121
-127
-131
-137
-145
-149
-153
-157
-161
-163
-167
-173
-175
-179
-181
-183
-189
-191
-193
-195
-199
-201
-205
-211
-213
-217
-219
-223
-229
-231
-233
-233
-235
-233
-231
-229
-223
-219
-213
-209
-193
-183
-175
-165
-155
-133
-121
-111
-101
-91
-81
-73
-57
-51
-45
-41
-39
-37
-37
-39
-43
-47
-59
-65
-73
-81
-91
-99
-109
-127
-135
-143
-151
-159
-171
-175
-179
-181
-183
-183
-183
-177
-171
-167
-159
-153
-135
-123
-113
-101
-89
-63
-51
-39
-25
-13
-1
10
30
40
48
56
62
72
76
78
80
80
80
78
72
68
62
58
52
38
32
24
18
10
-3
-11
-19
-25
-33
-41
-49
-63
-71
-79
-85
-93
-105
-109
-115
-119
-123
-125
-129
-135
-133
-133
-127
-121
-111
-97
-83
-91
-101
-121
-143
-65
-5
52
36
20
214
348
484
650
816
1134
1278
1422
1774
2126
2130
2136
2092
2078
2064
1728
1394
564
216
-129
-373
-617
-715
-815
-759
-593
-429
-427
-427
-363
-319
-277
-235
-195
-135
-157
-179
-165
-151
-139
-127
-113
-107
-103
-101
-99
-91
-87
-85
-81
-79
-75
-71
-63
-57
-51
-43
-37
-21
-9
0
12
22
48
62
76
92
106
122
136
166
180
194
220
248
258
270
280
292
300
310
326
332
340
344
350
362
366
370
374
380
392
398
404
410
418
426
434
454
464
474
486
498
522
534
548
560
574
588
602
628
640
654
666
680
704
716
728
740
752
764
776
798
808
818
828
840
858
866
874
880
888
898
902
906
906
906
904
904
894
886
878
868
858
832
816
800
802
806
784
762
716
690
666
640
614
562
536
512
486
462
416
394
374
354
334
318
304
274
260
248
238
228
210
204
198
194
190
188
184
184
186
188
192
196
212
218
226
236
254
264
276
286
296
306
318
338
346
356
362
370
384
388
392
394
396
396
398
398
394
392
388
386
378
374
370
366
362
354
350
348
344
342
340
338
338
338
338
338
338
342
344
346
348
350
352
356
360
362
366
370
374
380
384
388
390
394
398
402
410
414
420
424
428
436
440
444
446
450
456
458
460
460
460
458
458
456
452
448
444
440
428
422
416
408
400
392
386
370
362
354
346
340
326
320
314
308
304
296
292
290
288
286
284
282
282
280
280
280
282
284
284
286
288
292
294
298
306
310
316
322
328
342
350
358
366
376
394
404
414
422
432
442
452
470
476
484
490
498
510
512
516
518
522
522
522
522
518
516
512
510
500
494
488
482
476
462
454
446
438
430
422
414
400
392
384
378
372
360
354
350
346
342
338
336
330
328
328
328
328
328
330
332
334
336
338
340
346
350
354
358
364
378
384
392
398
406
428
442
458
470
482
480
478
520
514
510
550
592
708
682
656
746
838
970
1104
1438
1586
1736
2024
2312
2752
2658
2564
2464
2366
2132
1728
1324
858
394
50
-293
-501
-519
-539
-469
-401
-213
-183
-153
-107
-61
-3
52
132
170
208
242
276
340
342
344
364
386
400
412
424
432
440
444
450
460
462
466
466
468
468
468
468
466
466
466
466
466
466
466
466
468
472
474
476
478
482
488
492
496
500
504
508
512
520
524
530
534
540
552
558
566
574
582
590
600
622
634
646
660
674
704
720
736
740
746
766
786
828
848
870
890
912
944
958
974
986
1000
1024
1034
1046
1054
1062
1068
1076
1088
1090
1094
1096
1100
1100
1098
1098
1094
1092
1086
1082
1066
1056
1046
1034
1022
994
976
960
964
968
922
898
874
848
824
798
772
722
698
674
650
628
588
570
552
540
528
514
502
476
464
454
444
434
416
406
398
390
382
366
358
350
342
334
326
318
304
296
290
282
276
266
260
256
252
248
244
242
238
236
236
236
236
238
240
244
246
250
258
262
266
272
278
284
290
302
308
316
322
330
346
354
362
368
376
384
392
406
412
418
422
428
436
438
442
444
446
446
446
444
440
438
434
430
420
414
408
402
396
380
372
366
358
350
342
334
318
310
302
294
286
272
266
260
254
248
242
238
228
224
222
220
218
216
216
218
220
222
230
234
240
246
254
262
270
290
298
308
318
330
350
360
370
378
388
396
404
418
422
428
430
434
436
434
434
432
430
422
416
412
406
400
394
388
374
368
362
354
348
336
328
322
316
312
306
300
290
284
280
276
272
266
262
260
258
256
254
254
256
258
260
262
266
278
284
290
298
306
322
330
340
348
356
364
372
386
390
396
398
402
406
404
402
398
396
390
386
374
366
358
348
340
322
314
306
296
288
274
266
260
254
250
244
240
234
230
228
226
224
222
222
222
222
222
224
226
228
232
236
236
238
248
260
274
272
272
248
280
312
278
244
300
356
544
676
810
976
1142
1440
1658
1876
2170
2464
2628
2794
2914
2846
2778
2570
2364
1764
1342
922
516
112
-347
-469
-591
-577
-563
-467
-373
-253
-235
-219
-185
-153
-87
-61
-37
-35
-33
-19
-5
20
30
40
48
56
66
72
76
80
84
88
90
92
94
96
98
100
104
108
110
114
116
126
132
136
142
146
152
158
170
176
182
188
192
198
202
204
204
202
200
198
196
194
194
194
196
200
202
208
214
220
236
246
256
268
280
306
320
334
348
364
378
392
424
438
452
466
482
510
522
536
548
562
586
596
608
618
628
636
644
660
664
670
674
678
680
678
676
670
666
658
652
630
616
602
612
622
578
552
528
510
494
424
388
352
316
280
244
210
144
114
82
54
26
-29
-47
-67
-91
-117
-139
-163
-205
-215
-225
-237
-249
-269
-277
-285
-289
-295
-299
-299
-301
-299
-299
-295
-293
-285
-281
-277
-273
-269
-261
-257
-253
-249
-247
-245
-243
-239
-239
-239
-239
-239
-241
-243
-245
-247
-249
-253
-257
-265
-269
-275
-279
-285
-299
-305
-313
-319
-327
-343
-351
-361
-369
-377
-383
-391
-405
-411
-417
-421
-427
-433
-435
-437
-435
-435
-433
-433
-425
-421
-417
-411
-405
-391
-383
-375
-367
-361
-343
-335
-327
-319
-311
-303
-297
-283
-277
-271
-265
-261
-255
-251
-249
-247
-247
-247
-247
-249
-251
-255
-259
-263
-273
-279
-285
-291
-299
-315
-321
-329
-335
-343
-349
-357
-367
-371
-377
-379
-381
-383
-381
-381
-377
-373
-367
-361
-347
-337
-327
-315
-305
-279
-265
-253
-239
-227
-199
-187
-175
-163
-151
-139
-129
-111
-103
-97
-91
-87
-81
-79
-79
-79
-79
-81
-85
-93
-97
-101
-107
-113
-125
-131
-137
-143
-149
-153
-159
-167
-169
-171
-173
-175
-173
-171
-169
-165
-163
-155
-149
-145
-139
-133
-125
-119
-105
-99
-93
-85
-79
-67
-61
-57
-51
-47
-41
-37
-29
-25
-23
-19
-17
-11
-9
-7
-5
-3
-1
-1
-1
-1
-1
-1
-3
-7
-9
-11
-13
-15
-21
-23
-25
-27
-29
-29
-29
-31
-27
-23
-21
-19
-1
-13
-25
-3
18
-11
36
84
60
34
114
194
428
580
732
904
1076
1408
1696
1986
2156
2328
2354
2380
1800
1644
1490
1106
722
8
-249
-509
-619
-731
-691
-527
-365
-373
-381
-371
-361
-331
-307
-283
-261
-241
-265
-261
-257
-255
-253
-251
-251
-255
-259
-263
-267
-273
-285
-291
-297
-303
-309
-313
-319
-331
-335
-341
-345
-349
-357
-359
-363
-365
-369
-373
-373
-373
-373
-373
-371
-369
-363
-357
-353
-345
-339
-323
-313
-305
-293
-283
-271
-259
-235
-221
-209
-197
-185
-161
-149
-137
-125
-113
-93
-81
-71
-61
-51
-39
-29
-9
2
12
24
34
58
72
84
98
112
128
142
174
190
210
216
254
272
292
310
330
368
386
406
426
446
460
476
504
516
528
538
550
566
572
578
582
586
586
588
584
578
574
566
558
536
522
508
492
478
482
460
