10329
10338
10334
10308
10270
10248
10265
10323
10390
10427
10415
10370
10322
10296
10290
10290
10291
10302
10327
10355
10364
10345
10310
10280
10270
10274
10284
10296
10312
10331
10344
10340
10325
10312
10315
10330
10341
10332
10303
10267
10243
10243
10268
10307
10337
10340
10312
10271
10245
10252
10283
10316
10331
10331
10325
10324
10324
10322
10319
10326
10346
10367
10369
10342
10298
10262
10255
10279
10321
10362
10387
10386
10359
10314
10263
10224
10213
10231
10268
10308
10333
10338
10323
10302
10289
10293
10313
10338
10353
10350
10334
10319
10314
10319
10324
10324
10320
10320
10322
10315
10286
10241
10205
10201
10233
10275
10300
10299
10293
10305
10338
10373
10385
10369
10343
10324
10319
10323
10331
10344
10358
10366
10356
10329
10302
10295
10313
10341
10356
10353
10344
10347
10366
10389
10397
10382
10357
10347
10363
10398
10423
10415
10379
10344
10343
10376
10409
10400
10342
10270
10236
10258
10311
10344
10332
10287
10243
10226
10241
10275
10315
10348
10363
10355
10330
10304
10287
10280
10275
10277
10298
10343
10394
10416
10391
10335
10286
10272
10285
10297
10291
10276
10272
10284
10297
10298
10288
10281
10287
10302
10318
10335
10364
10414
10487
10574
10668
10765
10858
10942
11016
11088
11169
11253
11317
11328
11267
11134
10947
10732
10518
10334
10203
10128
10094
10075
10061
10059
10083
10136
10205
10274
10329
10361
10361
10325
10268
10217
10202
10229
10279
10327
10357
10372
10375
10363
10339
10315
10311
10331
10358
10368
10353
10332
10327
10337
10344
10331
10309
10303
10321
10347
10352
10330
10302
10295
10311
10332
10339
10334
10333
10348
10371
10384
10379
10363
10351
10349
10353
10359
10362
10365
10365
10361
10357
10362
10382
10412
10438
10446
10435
10415
10399
10396
10403
10412
10415
10411
10405
10406
10419
10439
10458
10464
10457
10445
10438
10446
10465
10486
10500
10504
10504
10507
10519
10537
10556
10568
10568
10561
10554
10554
10562
10577
10594
10613
10632
10646
10654
10655
10654
10658
10670
10687
10706
10721
10732
10735
10730
10718
10705
10696
10694
10698
10705
10711
10711
10698
10665
10616
10564
10530
10527
10548
10572
10580
10567
10545
10528
10519
10511
10495
10471
10448
10432
10425
10422
10418
10414
10412
10411
10405
10391
10373
10361
10362
10367
10365
10346
10320
10308
10324
10359
10387
10388
10366
10346
10350
10379
10411
10418
10394
10353
10321
10312
10324
10340
10344
10331
10308
10291
10293
10317
10350
10378
10389
10386
10378
10373
10369
10365
10364
10369
10378
10385
10384
10382
10392
10418
10444
10447
10421
10385
10369
10382
10402
10400
10367
10329
10317
10338
10369
10379
10363
10340
10332
10346
10366
10379
10384
10385
10387
10385
10375
10364
10358
10357
10352
10334
10313
10304
10320
10351
10375
10375
10356
10336
10332
10341
10351
10349
10335
10322
10321
10336
10358
10373
10374
10366
10359
10362
10374
10381
10370
10337
10296
10267
10265
10288
10325
10359
10377
10376
10360
10338
10325
10328
10347
10372
10388
10384
10360
10322
10286
10267
10274
10301
10334
10356
10358
10346
10334
10330
10333
10334
10330
10325
10327
10340
10355
10363
10361
10352
10344
10338
10335
10334
10335
10334
10328
10319
10316
10330
10361
10396
10412
10400
10367
10332
10306
10292
10287
10293
10310
10331
10337
10311
10262
10222
10223
10271
10331
10360
10342
10297
10267
10279
10325
10371
10389
10376
10350
10331
10326
10328
10329
10328
10329
10334
10340
10339
10329
10320
10323
10339
10361
10373
10368
10349
10334
10334
10351
10371
10382
10374
10353
10331
10315
10308
10307
10312
10327
10355
10390
10419
10428
10414
10389
10369
10361
10362
10367
10372
10379
10386
10386
10374
10354
10341
10338
10336
10318
10282
10246
10236
10257
10288
10302
10297
10295
10314
10350
10372
10362
10328
10299
10294
10304
10309
10301
10294
10301
10318
10329
10322
10306
10299
10303
10302
10282
10251
10236
10253
10292
10324
10327
10305
10281
10275
10294
10339
10409
10503
10609
10706
10784
10853
10934
11038
11147
11229
11265
11258
11221
11152
11037
10867
10665
10476
10337
10245
10170
10087
10006
9965
9993
10075
10167
10223
10238
10234
10242
10267
10294
10309
10315
10326
10347
10366
10362
10329
10285
10255
10251
10270
10294
10313
10323
10324
10314
10296
10280
10282
10308
10349
10385
10398
10389
10370
10357
10351
10348
10341
10335
10338
10353
10368
10373
10367
10362
10374
10399
10414
10394
10335
10264
10224
10236
10289
10345
10380
10394
10403
10415
10419
10398
10358
10323
10320
10348
10384
10400
10393
10382
10386
10408
10435
10454
10464
10470
10468
10456
10435
10423
10436
10475
10517
10538
10529
10505
10489
10492
10508
10524
10533
10538
10542
10544
10542
10538
10546
10575
10618
10655
10667
10651
10628
10623
10644
10673
10685
10670
10645
10635
10653
10684
10700
10686
10655
10632
10630
10638
10640
10627
10612
10609
10621
10635
10640
10632
10617
10601
10581
10551
10516
10486
10472
10478
10497
10514
10513
10485
10436
10389
10368
10380
10406
10417
10394
10351
10320
10325
10357
10386
10386
10354
10311
10281
10275
10294
10327
10362
10387
10390
10373
10342
10310
10286
10273
10280
10310
10357
10397
10398
10352
10282
10234
10239
10292
10354
10388
10384
10356
10330
10319
10323
10333
10345
10355
10359
10357
10347
10335
10323
10315
10317
10332
10356
10380
10390
10383
10367
10353
10348
10349
10350
10351
10355
10360
10362
10356
10346
10340
10340
10341
10338
10331
10329
10332
10331
10315
10286
10266
10271
10298
10327
10340
10343
10349
10367
10379
10368
10331
10288
10264
10267
10285
10301
10313
10324
10333
10333
10317
10296
10289
10304
10331
10349
10344
10323
10302
10290
10288
10289
10296
10311
10332
10346
10342
10321
10296
10283
10285
10296
10307
10313
10315
10314
10311
10308
10308
10315
10323
10322
10305
10282
10270
10281
10310
10336
10337
10308
10267
10235
10224
10235
10260
10289
10317
10336
10341
10335
10324
10317
10315
10308
10292
10271
10261
10271
10299
10327
10342
10341
10332
10320
10304
10280
10255
10243
10254
10282
10311
10324
10318
10300
10283
10275
10276
10284
10292
10295
10291
10283
10280
10287
10301
10313
10314
10305
10293
10285
10284
10286
10285
10274
10250
10221
10206
10224
10282
10356
10405
10402
10351
10290
10258
10267
10296
10313
10309
10298
10302
10328
10357
10366
10343
10300
10260
10245
10256
10279
10296
10300
10298
10303
10321
10345
10359
10355
10338
10322
10316
10321
10333
10350
10371
10392
10402
10392
10366
10336
10316
10308
10302
10292
10281
10281
10299
10327
10347
10345
10318
10276
10234
10208
10207
10232
10274
10310
10320
10297
10254
10217
10209
10231
10268
10298
10306
10294
10273
10256
10249
10253
10265
10279
10289
10289
10276
10254
10235
10226
10229
10234
10233
10228
10237
10276
10347
10432
10512
10578
10641
10718
10811
10913
11009
11094
11171
11236
11270
11246
11148
10989
10801
10624
10477
10352
10235
10117
10014
9954
9956
10013
10093
10160
10196
10204
10205
10216
10241
10273
10297
10304
10292
10267
10247
10247
10271
10307
10330
10324
10293
10256
10234
10236
10254
10279
10299
10311
10308
10293
10273
10266
10280
10309
10334
10337
10316
10288
10271
10273
10286
10299
10306
10310
10317
10327
10334
10334
10331
10332
10341
10353
10354
10335
10301
10271
10264
10283
10315
10341
10352
10356
10359
10363
10362
10359
10363
10385
10417
10434
10421
10382
10344
10330
10342
10365
10387
10405
10422
10432
10426
10408
10397
10414
10453
10490
10499
10481
10461
10461
10481
10505
10521
10530
10540
10548
10548
10542
10539
10549
10562
10562
10549
10543
10568
10619
10666
10677
10653
10624
10619
10639
10660
10660
10640
10613
10594
10587
10595
10617
10647
10664
10650
10606
10557
10535
10545
10569
10576
10557
10525
10493
10466
10442
10422
10415
10421
10428
10421
10399
10375
10362
10357
10342
10313
10285
10281
10305
10334
10342
10324
10302
10302
10329
10362
10376
10362
10325
10283
10249
10233
10234
10249
10271
10293
10313
10329
10335
10322
10292
10262
10255
10280
10317
10333
10307
10256
10218
10222
10260
10302
10319
10311
10300
10309
10342
10384
10410
10402
10362
10304
10255
10234
10245
10278
10312
10333
10342
10345
10347
10347
10338
10321
10299
10282
10277
10284
10298
10313
10323
10326
10323
10322
10324
10328
10329
10322
10308
10296
10295
10307
10321
10319
10293
10249
10206
10189
10210
10256
10304
10334
10340
10330
10312
10294
10279
10274
10284
10310
10339
10353
10343
10316
10289
10274
10274
10286
10304
10324
10334
10326
10296
10262
10246
10260
10289
10305
10286
10244
10209
10209
10245
10291
10316
10309
10283
10260
10255
10265
10277
10279
10275
10274
10285
10302
10311
10301
10275
10251
10243
10253
10272
10289
10304
10317
10325
10321
10305
10283
10268
10264
10266
10263
10256
10253
10258
10269
10279
10287
10298
10312
10317
10300
10268
10241
10239
10258
10273
10269
10251
10245
10258
10274
10270
10246
10230
10244
10284
10313
10307
10275
10250
10251
10266
10272
10261
10255
10272
10307
10331
10324
10293
10269
10268
10281
10286
10271
10252
10249
10268
10293
10305
10296
10279
10268
10268
10273
10276
10276
10280
10290
10296
10287
10259
10230
10225
10259
10314
10357
10358
10319
10272
10252
10269
10305
10338
10358
10372
10386
10392
10376
10338
10297
10275
10281
10299
10312
10315
10317
10331
10354
10370
10363
10332
10286
10244
10217
10209
10214
10225
10236
10248
10265
10291
10320
10340
10341
10324
10295
10262
10227
10194
10170
10166
10186
10222
10255
10270
10268
10256
10246
10242
10241
10239
10236
10234
10238
10250
10269
10283
10280
10259
10236
10237
10277
10348
10431
10514
10601
10702
10811
10913
10995
11064
11136
11209
11256
11242
11149
10994
10811
10627
10458
10312
10200
10127
10085
10055
10031
10026
10057
10116
10175
10204
10203
10196
10205
10230
10252
10260
10262
10270
10277
10267
10237
10208
10206
10239
10280
10299
10291
10273
10263
10262
10254
10238
10231
10248
10285
10318
10325
10308
10285
10271
10266
10264
10264
10273
10292
10312
10320
10313
10305
10309
10326
10342
10339
10313
10276
10253
10261
10302
10354
10387
10380
10337
10289
10271
10292
10332
10366
10382
10388
10398
10409
10408
10389
10359
10337
10336
10354
10381
10407
10425
10429
10415
10395
10385
10402
10442
10483
10504
10503
10492
10484
10482
10478
10473
10476
10492
10519
10542
10554
10558
10562
10566
10565
10556
10546
10546
10557
10577
10602
10636
10678
10709
10707
10663
10602
10566
10581
10634
10686
10711
10709
10697
10686
10670
10643
10615
10606
10624
10648
10647
10608
10550
10505
10495
10508
10519
10513
10493
10471
10449
10420
10379
10343
10335
10366
10413
10434
10403
10335
10278
10273
10322
10386
10423
10415
10381
10347
10325
10309
10295
10287
10297
10323
10351
10364
10357
10339
10320
10301
10281
10266
10268
10289
10317
10333
10331
10325
10332
10355
10378
10380
10357
10322
10297
10290
10296
10311
10330
10354
10374
10379
10360
10323
10287
10270
10280
10308
10336
10349
10343
10330
10324
10332
10347
10358
10359
10352
10344
10338
10330
10320
10318
10333
10363
10390
10391
10359
10316
10294
10310
10357
10404
10422
10402
10358
10315
10295
10299
10312
10318
10309
10295
10290
10301
10316
10320
10312
10305
10315
10338
10354
10343
10306
10268
10254
10272
10309
10345
10366
10369
10358
10339
10320
10310
10312
10321
10325
10319
10306
10297
10296
10302
10311
10325
10343
10360
10364
10351
10328
10310
10309
10320
10335
10346
10352
10356
10355
10344
10326
10309
10304
10312
10324
10327
10316
10296
10281
10282
10300
10328
10350
10354
10339
10316
10294
10282
10280
10291
10315
10346
10366
10357
10322
10289
10292
10335
10386
10405
10380
10337
10308
10295
10277
10245
10222
10243
10314
10393
10424
10392
10339
10315
10338
10377
10389
10365
10329
10310
10314
10325
10329
10326
10321
10318
10319
10325
10342
10365
10379
10370
10342
10316
10309
10319
10327
10322
10311
10313
10337
10369
10388
10384
10360
10331
10311
10311
10338
10385
10435
10461
10448
10399
10337
10288
10274
10299
10355
10416
10452
10447
10413
10386
10392
10424
10446
10431
10385
10344
10337
10357
10378
10380
10369
10363
10366
10365
10348
10324
10310
10319
10342
10364
10382
10395
10399
10385
10350
10312
10294
10306
10330
10344
10341
10333
10330
10325
10309
10287
10285
10316
10363
10386
10365
10318
10284
10280
10291
10288
10268
10256
10274
10318
10365
10399
10430
10481
10556
10645
10730
10811
10892
10978
11065
11149
11233
11309
11347
11307
11169
10962
10746
10570
10443
10343
10252
10171
10116
10090
10083
10089
10117
10180
10265
10336
10360
10335
10298
10289
10316
10357
10382
10381
10364
10349
10341
10336
10333
10335
10344
10355
10362
10365
10370
10382
10396
10401
10391
10373
10361
10362
10374
10386
10392
10394
10394
10393
10389
10385
10386
10393
10401
10400
10392
10386
10394
10411
10420
10408
10383
10369
10386
10429
10470
10487
10484
10479
10483
10482
10456
10401
10345
10326
10359
10426
10484
10503
10484
10450
10431
10442
10476
10514
10537
10534
10513
10494
10490
10506
10530
10551
10567
10578
10584
10581
10566
10549
10546
10561
10582
10596
10600
10605
10622
10648
10667
10669
10660
10654
10657
10661
10659
10659
10671
10698
10728
10744
10742
10732
10721
10705
10680
10658
10663
10707
10771
10815
10812
10770
10726
10707
10713
10725
10728
10720
10706
10688
10664
10637
10617
10605
10593
10572
10545
10523
10515
10512
10502
10483
10467
10463
10458
10432
10383
10343
10351
10413
10490
10532
10516
10463
10411
10383
10371
10367
10372
10392
10421
10441
10436
10411
10387
10381
10393
10410
10425
10438
10447
10448
10436
10416
10404
10405
10412
10416
10418
10430
10457
10484
10491
10470
10440
10424
10425
10423
10406
10384
10388
10428
10482
10510
10492
10445
10403
10388
10392
10403
10417
10442
10473
10493
10486
10453
10418
10403
10408
10420
10427
10434
10446
10458
10451
10420
10387
10383
10421
10472
10496
10474
10428
10398
10406
10436
10455
10447
10421
10399
10393
10401
10415
10432
10451
10464
10459
10433
10399
10377
10377
10393
10411
10423
10432
10441
10447
10443
10430
10418
10415
10420
10424
10424
10422
10424
10425
10414
10387
10360
10353
10371
10398
10412
10408
10400
10404
10417
10425
10417
10403
10398
10407
10415
10407
10385
10367
10368
10383
10399
10407
10412
10425
10442
10450
10440
10419
10405
10407
10416
10418
10408
10397
10402
10425
10456
10475
10472
10450
10422
10403
10403
10421
10440
10443
10420
10382
10353
10347
10357
10366
10359
10346
10349
10379
10421
10448
10443
10418
10400
10406
10431
10451
10449
10424
10393
10373
10371
10381
10396
10409
10420
10432
10444
10453
10453
10442
10423
10405
10398
10404
10414
10419
10417
10415
10425
10450
10476
10488
10477
10452
10425
10404
10389
10378
10375
10386
10410
10431
10438
10434
10436
10457
10491
10517
10520
10507
10495
10496
10501
10493
10471
10447
10440
10449
10459
10455
10437
10418
10408
10408
10413
10420
10429
10434
10423
10397
10371
10368
10392
10426
10441
10428
10404
10396
10413
10439
10450
10441
10425
10419
10425
10432
10429
10419
10411
10414
10426
10436
10429
10398
10348
10302
10286
10309
10356
10391
10390
10359
10332
10341
10390
10466
10549
10637
10733
10833
10926
11004
11077
11163
11266
11368
11434
11442
11384
11270
11117
10938
10754
10581
10432
10307
10204
10130
10098
10116
10174
10247
10309
10348
10366
10370
10367
10366
10373
10387
10402
10406
10396
10382
10377
10385
10398
10410
10420
10432
10443
10442
10424
10400
10392
10410
10443
10467
10467
10448
10428
10418
10412
10403
10390
10384
10398
10432
10474
10505
10510
10489
10454
10429
10427
10445
10464
10464
10443
10416
10405
10419
10452
10492
10527
10546
10542
10511
10467
10432
10424
10439
10460
10471
10474
10485
10507
10526
10527
10512
10502
10513
10537
10551
10544
10528
10528
10550
10581
10601
10608
10612
10620
10622
10607
10581
10567
10583
10625
10671
10697
10703
10700
10699
10696
10685
10665
10644
10635
10646
10675
10715
10756
10786
10800
10799
10790
10777
10763
10751
10749
10760
10780
10792
10785
10764
10749
10757
10780
10796
10787
10759
10732
10719
10712
10699
10677
10659
10659
10674
10686
10679
10655
10623
10594
10568
10541
10518
10505
10506
10515
10520
10514
10497
10476
10458
10455
10468
10490
10505
10495
10461
10421
10398
10406
10438
10471
10481
10460
10417
10375
10361
10386
10432
10468
10467
10435
10401
10394
10415
10441
10448
10439
10434
10443
10459
10465
10455
10444
10443
10451
10454
10447
10440
10445
10459
10467
10464
10464
10486
10531
10569
10570
10526
10462
10410
10387
10388
10400
10413
10422
10428
10429
10431
10439
10452
10465
10467
10457
10442
10429
10419
10409
10400
10399
10409
10427
10446
10459
10464
10465
10459
10446
10431
10422
10423
10428
10430
10430
10436
10450
10458
10450
10429
10416
10425
10443
10444
10422
10398
10403
10440
10480
10488
10460
10424
10408
10409
10414
10416
10431
10464
10496
10492
10443
10380
10350
10366
10404
10425
10418
10401
10393
10392
10387
10375
10369
10376
10386
10382
10365
10356
10374
10410
10436
10433
10413
10399
10400
10404
10401
10394
10398
10417
10437
10441
10426
10404
10387
10380
10380
10390
10414
10446
10468
10464
10440
10414
10401
10400
10398
10394
10394
10402
10410
10407
10397
10393
10405
10421
10423
10409
10395
10399
10412
10407
10375
10335
10322
10344
10379
10396
10390
10384
10399
10427
10441
10426
10394
10372
10372
10386
10401
10411
10417
10414
10398
10377
10370
10387
10418
10436
10427
10405
10398
10413
10429
10417
10381
10350
10354
10392
10436
10455
10447
10431
10424
10427
10429
10430
10434
10450
10474
10495
10499
10485
10457
10427
10407
10406
10421
10437
10442
10433
10423
10421
10428
10430
10419
10403
10396
10402
10405
10390
10359
10335
10340
10370
10400
10406
10384
10355
10343
10354
10375
10389
10392
10389
10390
10397
10403
10403
10393
10380
10371
10370
10374
10375
10366
10349
10334
10331
10342
10360
10369
10360
10332
10301
10289
10314
10377
10465
10562
10656
10748
10838
10927
11009
11087
11168
11253
11329
11369
11350
11268
11139
10981
10805
10618
10434
10279
10174
10122
10109
10122
10156
10216
10287
10340
10348
10319
10289
10296
10343
10394
10410
10382
10344
10335
10369
10418
10440
10416
10363
10321
10320
10353
10388
10396
10378
10360
10369
10399
10422
10410
10369
10332
10332
10370
10417
10440
10431
10402
10368
10341
10326
10334
10368
10417
10456
10462
10440
10412
10401
10408
10424
10437
10449
10459
10458
10431
10387
10354
10360
10403
10452
10476
10473
10467
10474
10485
10479
10454
10433
10437
10462
10478
10463
10427
10402
10412
10450
10492
10518
10529
10536
10540
10537
10528
10522
10525
10536
10543
10545
10551
10573
10610
10642
10649
10630
10607
10601
10618
10640
10651
10647
10641
10650
10681
10722
10753
10761
10744
10718
10700
10698
10713
10733
10749
10753
10745
10728
10709
10696
10694
10703
10711
10707
10688
10660
10635
10618
10606
10595
10583
10574
10569
10565
10557
10542
10525
10507
10486
10459
10430
10408
10400
10402
10405
10397
10381
10367
10364
10368
10369
10361
10349
10344
10356
10384
10412
10427
10418
10391
10359
10336
10331
10345
10369
10394
10410
10413
10402
10384
10368
10363
10371
10385
10394
10388
10368
10342
10325
10327
10349
10382
10409
10416
10399
10371
10351
10348
10357
10362
10354
10343
10346
10367
10394
10405
10389
10358
10334
10330
10342
10358
10370
10377
10380
10375
10363
10352
10358
10380
10403
10402
10371
10331
10315
10339
10388
10426
10427
10391
10342
10308
10299
10312
10336
10360
10378
10386
10386
10381
10375
10366
10351
10329
10306
10294
10300
10326
10362
10393
10411
10410
10391
10362
10330
10307
10298
10302
10318
10339
10359
10371
10369
10351
10330
10319
10328
10350
10369
10369
10349
10320
10296
10287
10290
10299
10305
10306
10303
10302
10307
10320
10334
10340
10332
10319
10310
10311
10315
10310
10296
10285
10292
10319
10349
10365
10361
10347
10340
10342
10348
10349
10344
10336
10329
10319
10308
10303
10309
10323
10328
10313
10284
10260
10255
10268
10288
10306
10323
10342
10358
10361
10346
10321
10300
10291
10290
10289
10289
10296
10311
10326
10332
10332
10340
10357
10371
10361
10321
10269
10235
10232
10253
10281
10305
10325
10338
10338
10319
10292
10278
10293
10328
10359
10368
10356
10338
10325
10317
10314
10317
10334
10361
10383
10388
10374
10358
10353
10362
10374
10380
10379
10376
10372
10363
10349
10332
10321
10320
10323
10325
10318
10303
10281
10259
10249
10262
10296
10333
10344
10315
10258
10207
10196
10229
10286
10335
10354
10339
10299
10251
10216
10206
10222
10248
10264
10262
10254
10257
10274
10294
10299
10285
10268
10264
10275
10285
10281
10268
10268
10302
10373
10464
10559
10644
10721
10794
10869
10951
11043
11135
11207
11235
11204
11115
10986
10835
10674
10513
10361
10229
10127
10061
10031
10038
10077
10130
10173
10188
10181
10179
10202
10247
10287
10297
10283
10270
10276
10291
10283
10242
10190
10170
10202
10266
10321
10335
10317
10293
10284
10286
10288
10285
10285
10294
10307
10311
10304
10292
10289
10295
10300
10295
10283
10277
10284
10301
10316
10319
10310
10296
10285
10282
10287
10299
10315
10330
10340
10345
10346
10343
10332
10314
10299
10298
10319
10352
10379
10385
10369
10344
10322
10311
10309
10317
10339
10375
10415
10442
10440
10413
10380
10366
10378
10408
10438
10455
10460
10462
10468
10478
10489
10497
10505
10511
10511
10502
10489
10481
10488
10510
10540
10566
10583
10590
10584
10569
10549
10538
10549
10581
10619
10641
10642
10631
10626
10632
10642
10646
10641
10635
10631
10629
10625
10623
10631
10650
10665
10658
10624
10574
10529
10501
10486
10479
10481
10493
10504
10496
10457
10398
10348
10329
10338
10353
10353
10338
10317
10299
10283
10269
10267
10286
10322
10351
10347
10306
10251
10216
10219
10251
10292
10324
10335
10319
10277
10223
10183
10182
10222
10278
10316
10317
10295
10275
10271
10277
10279
10271
10264
10269
10284
10294
10288
10276
10280
10312
10359
10385
10368
10312
10251
10221
10231
10260
10281
10280
10266
10256
10255
10259
10264
10273
10295
10329
10354
10348
10309
10259
10233
10249
10294
10338
10354
10334
10290
10243
10214
10210
10232
10264
10287
10287
10267
10247
10246
10268
10295
10309
10304
10291
10286
10290
10293
10283
10263
10249
10254
10277
10299
10303
10282
10249
10221
10212
10226
10256
10288
10306
10302
10280
10256
10247
10259
10279
10290
10282
10261
10239
10226
10224
10232
10245
10260
10268
10262
10243
10222
10214
10225
10244
10258
10261
10259
10262
10266
10259
10239
10219
10217
10238
10268
10285
10281
10265
10251
10241
10229
10216
10213
10231
10262
10284
10281
10257
10238
10241
10266
10292
10304
10299
10285
10266
10243
10220
10208
10217
10241
10261
10263
10253
10248
10262
10288
10307
10307
10289
10263
10237
10213
10197
10197
10217
10248
10274
10283
10279
10272
10267
10257
10237
10215
10211
10232
10266
10288
10284
10267
10261
10275
10297
10303
10284
10251
10230
10235
10257
10283
10299
10309
10317
10323
10318
10296
10264
10241
10246
10280
10326
10362
10375
10366
10348
10330
10313
10300
10291
10289
10289
10282
10263
10239
10228
10241
10266
10283
10280
10267
10266
10283
10302
10297
10257
10201
10161
10158
10188
10227
10254
10261
10253
10239
10231
10233
10244
10254
10253
10241
10230
10234
10254
10271
10267
10239
10206
10193
10210
10243
10266
10268
10256
10249
10262
10299
10357
10432
10520
10615
10706
10788
10862
10941
11035
11142
11239
11296
11287
11206
11063
10880
10679
10479
10301
10165
10077
10031
10012
10011
10028
10067
10120
10166
10186
10186
10188
10214
10260
10302
10319
10314
10306
10306
10305
10288
10255
10225
10218
10236
10259
10273
10282
10293
10304
10298
10269
10235
10226
10256
10301
10326
10314
10287
10280
10304
10339
10355
10344
10326
10319
10325
10330
10325
10320
10328
10349
10367
10367
10347
10322
10305
10302
10309
10321
10334
10347
10356
10362
10367
10374
10377
10373
10360
10346
10343
10353
10368
10382
10397
10419
10450
10477
10484
10466
10434
10406
10393
10394
10405
10422
10443
10463
10470
10462
10451
10452
10474
10509
10543
10565
10576
10579
10574
10561
10548
10550
10576
10618
10655
10670
10665
10656
10653
10655
10654
10646
10641
10647
10656
10656
10641
10624
10629
10665
10715
10747
10742
10704
10654
10612
10584
10571
10576
10601
10634
10653
10634
10577
10512
10473
10473
10494
10509
10502
10479
10459
10449
10443
10435
10424
10416
10415
10411
10400
10382
10365
10356
10349
10339
10326
10320
10329
10351
10372
10380
10377
10371
10368
10365
10359
10352
10349
10351
10356
10359
10366
10382
10401
10410
10395
10364
10338
10336
10351
10360
10351
10332
10325
10337
10358
10369
10369
10370
10380
10393
10392
10375
10356
10352
10364
10379
10392
10405
10424
10433
10412
10357
10301
10288
10332
10400
10436
10417
10368
10339
10353
10396
10431
10439
10425
10407
10395
10390
10390
10394
10399
10399
10395
10395
10407
10422
10422
10400
10374
10369
10391
10411
10395
10344
10297
10298
10345
10397
10412
10390
10368
10373
10396
10407
10392
10373
10377
10407
10438
10443
10421
10394
10381
10384
10394
10401
10400
10385
10356
10327
10326
10366
10423
10453
10431
10384
10361
10385
10426
10433
10391
10340
10334
10379
10433
10447
10418
10382
10374
10391
10407
10408
10404
10407
10411
10397
10366
10349
10375
10435
10488
10493
10452
10400
10372
10372
10384
10394
10404
10417
10427
10425
10412
10404
10412
10428
10434
10421
10402
10398
10412
10426
10425
10410
10397
10395
10398
10395
10384
10376
10383
10403
10425
10437
10440
10439
10440
10441
10439
10432
10423
10415
10415
10426
10447
10465
10469
10453
10430
10420
10431
10454
10473
10479
10478
10476
10474
10468
10460
10462
10479
10503
10515
10504
10478
10457
10455
10471
10494
10513
10524
10525
10516
10504
10500
10515
10544
10566
10559
10524
10477
10441
10427
10429
10435
10437
10430
10415
10402
10405
10435
10482
10517
10515
10484
10456
10464
10504
10540
10537
10494
10444
10416
10413
10418
10421
10429
10452
10487
10512
10510
10488
10465
10459
10470
10485
10487
10469
10434
10394
10371
10381
10428
10491
10542
10574
10604
10659
10746
10845
10928
10986
11038
11107
11203
11312
11411
11476
11485
11422
11283
11089
10881
10697
10551
10439
10352
10293
10268
10272
10285
10293
10300
10325
10372
10426
10463
10477
10483
10498
10516
10517
10495
10464
10455
10476
10512
10536
10540
10538
10545
10555
10554
10530
10497
10476
10479
10499
10521
10534
10538
10532
10511
10480
10454
10459
10503
10565
10605
10600
10563
10529
10529
10559
10591
10599
10587
10575
10578
10589
10591
10579
10566
10569
10594
10622
10633
10619
10593
10570
10556
10551
10556
10574
10605
10638
10659
10659
10649
10641
10638
10631
10612
10590
10586
10611
10654
10689
10703
10700
10700
10711
10723
10721
10706
10694
10706
10743
10787
10813
10810
10785
10759
10747
10758
10785
10820
10854
10882
10898
10901
10892
10876
10863
10861
10872
10892
10910
10920
10921
10917
10912
10911
10919
10937
10960
10971
10957
10918
10874
10849
10853
10872
10884
10879
10862
10842
10820
10792
10764
10752
10770
10809
10835
10824
10776
10724
10695
10690
10687
10664
10628
10597
10585
10585
10582
10576
10577
10596
10622
10635
10622
10593
10568
10560
10562
10562
10557
10555
10567
10590
10613
10620
10608
10586
10563
10548
10545
10554
10572
10590
10599
10594
10583
10578
10584
10592
10590
10574
10555
10550
10566
10591
10606
10602
10585
10570
10568
10578
10598
10623
10649
10664
10658
10631
10599
10585
10599
10628
10645
10637
10611
10590
10584
10588
10590
10588
10592
10609
10632
10641
10629
10603
10583
10576
10576
10571
10560
10554
10565
10587
10606
10610
10601
10590
10584
10585
10588
10589
10590
10592
10595
10596
10598
10603
10612
10620
10619
10608
10591
10579
10574
10576
10577
10572
10563
10559
10565
10579
10592
10595
10584
10568
10557
10555
10561
10567
10572
10575
10580
10588
10596
10601
10597
10582
10556
10528
10511
10519
10551
10588
10604
10589
10557
10538
10553
10593
10627
10627
10595
10552
10529
10534
10556
10573
10572
10557
10541
10536
10544
10559
10574
10587
10597
10604
10604
10591
10565
10538
10521
10525
10547
10571
10583
10576
10556
10537
10533
10546
10567
10583
10585
10575
10561
10549
10538
10525
10512
10510
10525
10550
10568
10570
10564
10567
10584
10600
10595
10568
10540
10536
10559
10585
10591
10580
10573
10583
10598
10596
10570
10538
10524
10533
10549
10558
10562
10574
10594
10607
10598
10576
10564
10578
10604
10615
10601
10575
10560
10565
10577
10585
10596
10624
10667
10701
10698
10656
10604
10577
10588
10619
10639
10634
10609
10579
10558
10549
10551
10564
10587
10612
10625
10610
10564
10497
10438
10415
10441
10500
10564
10604
10612
10597
10574
10558
10555
10565
10585
10603
10605
10582
10543
10507
10495
10512
10549
10584
10601
10591
10559
10520
10494
10492
10508
10525
10534
10540
10563
10613
10681
10752
10820
10897
10994
11105
11204
11277
11337
11410
11501
11575
11582
11497
11334
11135
10933
10743
10577
10451
10376
10343
10325
10304
10292
10317
10389
10483
10555
10578
10562
10534
10514
10502
10492
10490
10507
10541
10576
10592
10585
10569
10560
10562
10568
10570
10569
10569
10569
10563
10548
10532
10529
10546
10576
10604
10614
10600
10571
10547
10547
10576
10620
10652
10653
10628
10596
10579
10581
10590
10598
10602
10606
10610
10605
10589
10572
10572
10598
10637
10666
10666
10639
10609
10593
10598
10614
10629
10638
10643
10649
10656
10662
10667
10674
10687
10705
10718
10715
10690
10648
10607
10590
10606
10654
10712
10758
10775
10763
10740
10730
10751
10797
10844
10865
10851
10813
10776
10763
10779
10813
10846
10866
10870
10865
10862
10867
10878
10889
10894
10897
10904
10917
10931
10936
10929
10917
10909
10911
10919
10931
10947
10959
10955
10920
10859
10802
10779
10795
10821
10821
10787
10744
10723
10731
10746
10746
10731
10716
10706
10689
10656
10621
10607
10620
10634
10618
10573
10535
10539
10576
10604
10588
10544
10516
10532
10571
10591
10577
10552
10553
10583
10608
10600
10561
10524
10514
10526
10539
10539
10535
10536
10539
10533
10515
10499
10502
10526
10556
10575
10582
10585
10585
10575
10551
10525
10519
10544
10582
10605
10598
10573
10557
10562
10579
10590
10584
10568
10554
10543
10529
10513
10509
10529
10566
10596
10596
10570
10541
10534
10549
10564
10562
10549
10547
10565
10586
10587
10563
10535
10528
10545
10566
10570
10557
10542
10538
10540
10535
10524
10518
10523
10529
10526
10517
10525
10558
10598
10610
10579
10530
10503
10511
10531
10528
10497
10467
10470
10504
10534
10535
10511
10488
10486
10501
10517
10531
10547
10563
10565
10544
10511
10492
10503
10527
10535
10515
10484
10469
10479
10498
10507
10504
10504
10513
10522
10515
10494
10476
10475
10487
10496
10493
10485
10487
10500
10510
10506
10491
10480
10485
10504
10521
10520
10498
10468
10450
10460
10499
10550
10580
10565
10507
10438
10401
10420
10477
10531
10547
10521
10481
10458
10469
10501
10529
10536
10522
10502
10488
10484
10485
10483
10479
10482
10498
10522
10536
10526
10493
10455
10437
10449
10481
10512
10523
10512
10492
10480
10484
10502
10520
10529
10526
10518
10510
10503
10491
10475
10461
10463
10483
10510
10528
10525
10508
10494
10501
10529
10565
10593
10600
10587
10563
10546
10548
10572
10602
10614
10592
10541
10485
10450
10444
10456
10471
10484
10496
10507
10510
10495
10469
10448
10450
10471
10490
10489
10467
10443
10434
10440
10447
10450
10452
10465
10490
10511
10509
10484
10455
10441
10447
10463
10473
10472
10469
10471
10478
10481
10473
10454
10433
10417
10414
10429
10465
10521
10588
10660
10731
10805
10882
10963
11046
11133
11228
11330
11425
11481
11469
11373
11208
11004
10800
10629
10506
10430
10380
10336
10288
10249
10238
10265
10317
10369
10401
10413
10417
10423
10433
10444
10460
10484
10516
10541
10540
10507
10457
10417
10411
10443
10497
10542
10554
10528
10481
10446
10442
10464
10485
10484
10460
10437
10436
10455
10476
10481
10475
10474
10487
10504
10508
10496
10483
10490
10520
10556
10574
10562
10525
10483
10458
10465
10501
10546
10573
10567
10538
10512
10513
10537
10562
10564
10544
10523
10520
10529
10530
10510
10483
10476
10505
10561
10611
10631
10618
10594
10583
10598
10632
10664
10679
10672
10650
10624
10604
10594
10598
10614
10636
10654
10661
10661
10669
10696
10737
10772
10784
10776
10765
10767
10777
10780
10767
10749
10750
10780
10828
10870
10888
10883
10866
10842
10813
10780
10753
10744
10758
10783
10806
10816
10813
10804
10793
10782
10766
10742
10709
10674
10648
10640
10649
10664
10672
10665
10647
10623
10595
10564
10538
10530
10544
10564
10568
10544
10507
10482
10482
10494
10500
10497
10499
10510
10512
10478
10411
10350
10347
10411
10500
10553
10544
10497
10458
10451
10464
10473
10475
10480
10497
10511
10504
10474
10448
10452
10488
10529
10545
10530
10502
10486
10487
10493
10496
10494
10495
10502
10506
10498
10481
10469
10474
10494
10513
10517
10505
10488
10479
10482
10491
10499
10502
10502
10498
10487
10473
10465
10471
10494
10524
10548
10560
10561
10554
10540
10520
10501
10495
10504
10515
10508
10475
10431
10409
10429
10481
10537
10565
10558
10525
10487
10456
10445
10457
10490
10528
10550
10544
10519
10496
10491
10499
10501
10487
10461
10442
10442
10457
10473
10480
10479
10479
10482
10486
10484
10473
10460
10451
10452
10464
10482
10501
10513
10510
10493
10468
10449
10445
10453
10460
10454
10439
10429
10438
10467
10498
10518
10525
10527
10533
10533
10512
10468
10419
10395
10409
10447
10480
10492
10485
10471
10461
10455
10455
10463
10482
10500
10498
10471
10436
10420
10436
10472
10500
10505
10496
10487
10485
10484
10477
10470
10470
10473
10467
10445
10420
10415
10444
10494
10535
10543
10518
10480
10450
10439
10445
10462
10481
10494
10494
10482
10464
10451
10452
10468
10495
10518
10523
10503
10466
10436
10430
10449
10473
10480
10469
10455
10458
10477
10494
10494
10478
10465
10470
10491
10516
10532
10535
10523
10495
10461
10439
10452
10504
10570
10615
10613
10572
10520
10482
10468
10473
10483
10492
10495
10492
10486
10485
10488
10494
10494
10489
10484
10482
10476
10459
10435
10424
10444
10487
10520
10514
10472
10426
10410
10427
10454
10469
10467
10459
10454
10444
10424
10399
10385
10390
10406
10418
10419
10418
10428
10451
10477
10494
10498
10491
10481
10476
10491
10536
10612
10705
10797
10881
10962
11047
11136
11222
11301
11377
11444
11479
11446
11326
11136
10924
10734
10584
10463
10363
10286
10243
10236
10249
10264
10278
10303
10349
10412
10467
10491
10480
10451
10428
10427
10443
10458
10460
10449
10437
10436
10446
10456
10458
10454
10458
10476
10497
10500
10478
10442
10421
10438
10484
10532
10551
10533
10495
10467
10467
10487
10504
10502
10481
10465
10472
10502
10533
10544
10532
10515
10511
10520
10527
10519
10502
10495
10512
10546
10574
10577
10553
10517
10488
10479
10487
10500
10506
10500
10493
10501
10530
10564
10580
10569
10550
10550
10581
10620
10634
10610
10571
10554
10574
10612
10644
10658
10662
10665
10661
10644
10620
10612
10637
10685
10727
10745
10740
10734
10743
10764
10789
10810
10827
10836
10830
10808
10783
10773
10785
10809
10826
10832
10830
10828
10822
10809
10798
10801
10820
10839
10836
10809
10777
10761
10762
10761
10748
10731
10724
10728
10722
10691
10649
10629
10649
10685
10693
10650
10576
10515
10494
10507
10528
10539
10543
10545
10543
10528
10505
10491
10498
10518
10528
10512
10477
10447
10440
10451
10465
10471
10471
10474
10482
10486
10481
10468
10456
10455
10467
10483
10489
10476
10450
10426
10427
10460
10513
10557
10564
10528
10471
10426
10412
10426
10448
10461
10466
10473
10486
10499
10495
10474
10450
10447
10475
10521
10557
10564
10540
10504
10477
10468
10474
10487
10497
10499
10490
10472
10454
10448
10460
10482
10502
10507
10500
10487
10480
10482
10491
10503
10510
10503
10478
10439
10406
10399
10424
10467
10500
10510
10501
10492
10490
10489
10478
10456
10437
10434
10447
10466
10478
10479
10476
10474
10475
10474
10475
10481
10493
10505
10506
10494
10472
10453
10443
10444
10452
10460
10465
10461
10452
10444
10450
10472
10498
10505
10480
10435
10397
10391
10414
10442
10456
10457
10462
10477
10489
10482
10459
10443
10455
10479
10480
10436
10370
10337
10369
10445
10506
10506
10459
10413
10408
10438
10467
10471
10459
10455
10470
10491
10497
10485
10467
10452
10443
10435
10432
10440
10459
10477
10477
10459
10436
10425
10430
10445
10459
10468
10471
10465
10451
10436
10429
10432
10433
10423
10402
10388
10399
10430
10459
10469
10461
10452
10456
10468
10474
10467
10456
10454
10462
10472
10474
10468
10458
10451
10450
10454
10460
10458
10440
10406
10375
10369
10397
10446
10490
10517
10536
10557
10572
10556
10502
10435
10400
10423
10484
10534
10540
10509
10478
10475
10495
10518
10527
10523
10515
10505
10488
10467
10451
10452
10468
10486
10488
10472
10444
10419
10408
10416
10437
10458
10468
10461
10445
10433
10432
10436
10435
10422
10403
10391
10390
10397
10404
10407
10411
10422
10442
10464
10475
10467
10442
10412
10395
10400
10420
10434
10428
10406
10391
10400
10429
10461
10487
10521
10580
10670
10772
10864
10941
11022
11120
11230
11327
11391
11416
11403
11346
11236
11075
10892
10722
10584
10466
10352
10247
10175
10162
10204
10269
10326
10360
10376
10381
10378
10371
10371
10389
10418
10434
10420
10384
10356
10361
10396
10436
10461
10469
10472
10476
10473
10452
10423
10408
10424
10457
10479
10470
10435
10402
10394
10412
10439
10463
10480
10493
10498
10488
10461
10428
10410
10417
10444
10474
10494
10500
10494
10475
10443
10415
10414
10453
10518
10567
10568
10523
10475
10464
10499
10546
10563
10534
10482
10441
10431
10447
10473
10497
10517
10533
10546
10554
10562
10566
10561
10546
10531
10533
10564
10608
10631
10614
10570
10539
10550
10596
10637
10644
10622
10604
10619
10664
10714
10743
10745
10729
10707
10686
10671
10668
10686
10721
10759
10780
10775
10752
10731
10725
10740
10767
10796
10817
10825
10822
10811
10797
10781
10766
10754
10750
10750
10748
10738
10720
10700
10687
10681
10677
10666
10642
10605
10562
10526
10506
10507
10519
10530
10527
10512
10497
10490
10491
10492
10487
10476
10463
10449
10434
10416
10400
10394
10400
10418
10441
10463
10475
10468
10441
10406
10386
10398
10436
10470
10472
10444
10409
10392
10392
10395
10392
10393
10415
10453
10479
10468
10423
10378
10367
10393
10433
10457
10456
10438
10423
10420
10430
10450
10471
10482
10476
10455
10431
10415
10412
10415
10421
10432
10450
10466
10464
10441
10411
10396
10410
10441
10467
10474
10457
10424
10384
10351
10344
10373
10430
10480
10492
10462
10416
10386
10382
10388
10391
10394
10408
10430
10442
10432
10412
10405
10421
10437
10428
10391
10358
10362
10402
10445
10459
10441
10417
10404
10400
10392
10378
10374
10388
10411
10423
10415
10398
10390
10392
10395
10394
10397
10416
10444
10460
10446
10407
10369
10356
10368
10390
10401
10394
10374
10348
10326
10318
10331
10359
10385
10391
10377
10359
10355
10370
10390
10399
10397
10394
10398
10404
10403
10395
10385
10382
10386
10392
10395
10399
10404
10407
10402
10388
10376
10376
10388
10401
10399
10380
10353
10332
10324
10330
10345
10365
10386
10399
10397
10379
10356
10343
10347
10364
10383
10390
10382
10362
10338
10320
10321
10345
10384
10415
10418
10389
10349
10322
10323
10345
10367
10381
10389
10398
10411
10419
10418
10410
10403
10399
10390
10372
10351
10339
10343
10355
10361
10359
10359
10374
10401
10421
10421
10407
10397
10405
10426
10442
10442
10429
10412
10397
10386
10382
10395
10428
10466
10484
10466
10420
10373
10346
10338
10334
10326
10318
10322
10339
10357
10366
10366
10368
10374
10378
10367
10343
10320
10314
10329
10355
10376
10382
10376
10366
10360
10359
10361
10358
10346
10329
10312
10304
10306
10312
10315
10312
10309
10310
10317
10326
10331
10329
10320
10311
10313
10338
10393
10472
10556
10628
10686
10749
10839
10963
11100
11217
11292
11322
11318
11285
11215
11102
10948
10771
10591
10421
10268
10143
10060
10034
10064
10131
10205
10261
10289
10292
10281
10267
10259
10262
10276
10296
10315
10330
10341
10351
10356
10355
10346
10334
10328
10332
10340
10345
10341
10334
10336
10348
10362
10364
10349
10322
10298
10291
10304
10331
10364
10387
10389
10369
10337
10320
10335
10379
10426
10445
10424
10386
10361
10368
10396
10421
10423
10406
10383
10367
10358
10352
10353
10368
10400
10438
10460
10455
10430
10408
10410
10438
10469
10475
10445
10397
10362
10365
10404
10450
10475
10474
10466
10468
10480
10482
10463
10435
10430
10466
10528
10578
10589
10567
10540
10532
10541
10549
10550
10556
10583
10624
10649
10635
10591
10554
10562
10616
10687
10735
10750
10742
10731
10720
10701
10673
10649
10646
10666
10693
10703
10692
10674
10666
10679
10700
10713
10706
10677
10638
10603
10584
10583
10590
10585
10554
10503
10451
10423
10422
10437
10448
10450
10449
10450
10449
10438
10414
10389
10379
10388
10403
10405
10386
10356
10329
10314
10312
10316
10323
10332
10339
10342
10339
10330
10319
10311
10311
10324
10349
10378
10393
10383
10354
10330
10333
10366
10404
10414
10383
10327
10277
10257
10272
10309
10353
10386
10395
10374
10332
10290
10274
10294
10338
10378
10394
10384
10357
10329
10311
10310
10327
10353
10370
10362
10329
10296
10291
10319
10360
10387
10389
10381
10382
10389
10384
10356
10317
10300
10321
10363
10393
10392
10370
10352
10349
10352
10349
10338
10328
10320
10304
10280
10264
10279
10327
10373
10378
10332
10269
10234
10244
10273
10290
10289
10291
10313
10339
10342
10312
10273
10257
10275
10303
10316
10306
10288
10277
10274
10277
10286
10310
10344
10369
10365
10335
10301
10283
10280
10281
10283
10290
10305
10315
10302
10270
10248
10260
10300
10330
10320
10279
10242
10237
10257
10280
10299
10323
10355
10372
10340
10260
10177
10148
10190
10268
10329
10349
10341
10330
10318
10298
10271
10255
10265
10292
10309
10300
10275
10258
10258
10267
10271
10269
10270
10271
10264
10243
10224
10228
10259
10292
10298
10277
10256
10261
10288
10308
10302
10280
10268
10273
10280
10267
10239
10224
10243
10291
10338
10360
10354
10330
10302
10276
10258
10256
10271
10291
10299
10290
10277
10278
10294
10308
10307
10299
10302
10320
10336
10321
10275
10228
10218
10256
10320
10374
10397
10394
10380
10366
10353
10339
10327
10318
10308
10289
10261
10235
10225
10237
10265
10293
10310
10310
10298
10282
10272
10276
10287
10295
10284
10256
10225
10210
10216
10232
10246
10250
10249
10251
10254
10254
10251
10249
10252
10259
10264
10266
10267
10271
10271
10259
10235
10214
10211
10226
10239
10234
10217
10216
10257
10334
10421
10493
10549
10607
10681
10766
10851
10933
11026
11136
11245
11309
11286
11167
10980
10771
10577
10416
10286
10173
10068
9972
9902
9882
9924
10019
10131
10221
10267
10273
10262
10251
10246
10244
10241
10242
10254
10275
10297
10306
10292
10258
10224
10210
10228
10271
10311
10323
10298
10252
10216
10213
10242
10286
10318
10325
10309
10283
10260
10247
10245
10250
10263
10278
10291
10294
10285
10270
10262
10270
10290
10312
10324
10321
10311
10303
10303
10312
10329
10348
10358
10346
10309
10264
10239
10255
10303
10353
10374
10361
10335
10321
10330
10353
10376
10392
10397
10392
10375
10354
10344
10356
10384
10408
10413
10403
10400
10415
10441
10456
10448
10431
10428
10455
10499
10535
10547
10538
10521
10511
10510
10518
10533
10554
10574
10585
10582
10572
10570
10586
10614
10637
10637
10612
10582
10573
10595
10633
10661
10659
10629
10590
10560
10549
10551
10557
10561
10555
10538
10512
10487
10476
10481
10494
10498
10485
10458
10427
10399
10375
10357
10349
10356
10374
10389
10385
10359
10321
10285
10264
10260
10270
10285
10290
10274
10238
10202
10191
10214
10253
10278
10277
10262
10255
10262
10272
10272
10264
10262
10271
10278
10269
10247
10232
10244
10278
10310
10321
10308
10283
10254
10226
10204
10201
10225
10267
10304
10314
10300
10277
10258
10239
10218
10206
10223
10274
10333
10360
10333
10273
10224
10218
10248
10286
10305
10301
10283
10260
10242
10232
10236
10257
10287
10317
10339
10350
10347
10327
10291
10252
10226
10223
10240
10261
10271
10267
10252
10235
10222
10219
10229
10247
10260
10259
10246
10239
10245
10257
10260
10243
10221
10214
10228
10248
10255
10251
10251
10262
10271
10253
10203
10151
10135
10169
10228
10272
10279
10259
10236
10225
10225
10229
10238
10252
10262
10251
10213
10162
10127
10129
10165
10213
10246
10255
10242
10221
10209
10217
10243
10276
10293
10284
10253
10219
10200
10199
10205
10212
10218
10227
10238
10242
10238
10235
10244
10263
10272
10256
10219
10187
10178
10190
10199
10191
10178
10188
10231
10284
10310
10289
10236
10185
10157
10153
10164
10184
10213
10242
10255
10241
10212
10194
10200
10221
10233
10225
10212
10214
10233
10250
10247
10230
10222
10235
10252
10243
10203
10161
10158
10205
10273
10315
10313
10289
10278
10295
10322
10330
10312
10281
10258
10246
10234
10214
10198
10206
10246
10299
10329
10316
10272
10231
10221
10245
10277
10293
10285
10264
10246
10235
10221
10202
10186
10188
10215
10251
10270
10257
10220
10183
10167
10174
10190
10202
10204
10202
10200
10200
10200
10200
10199
10200
10199
10200
10203
10212
10220
10217
10202
10183
10179
10198
10229
10246
10229
10189
10160
10171
10228
10311
10393
10464
10534
10611
10696
10779
10858
10941
11039
11141
11219
11237
11179
11051
10880
10691
10501
10325
10174
10060
9989
9956
9952
9971
10011
10067
10126
10167
10180
10168
10148
10140
10153
10181
10207
10222
10225
10221
10219
10220
10221
10217
10209
10195
10177
10160
10155
10174
10221
10278
10316
10315
10278
10234
10211
10218
10237
10246
10237
10218
10207
10210
10225
10245
10262
10272
10275
10271
10267
10263
10255
10239
10217
10206
10221
10260
10298
10306
10280
10246
10240
10270
10315
10344
10344
10329
10317
10313
10306
10292
10277
10277
10298
10324
10335
10324
10304
10294
10309
10342
10373
10386
10378
10364
10360
10372
10389
10395
10386
10378
10385
10408
10428
10430
10421
10423
10450
10490
10513
10503
10475
10458
10466
10489
10508
10520
10538
10565
10590
10593
10576
10562
10570
10593
10605
10590
10560
10542
10548
10566
10578
10580
10584
10596
10607
10600
10571
10533
10499
10476
10463
10460
10468
10479
10470
10425
10356
10298
10282
10307
10345
10367
10369
10362
10353
10335
10301
10261
10236
10239
10259
10274
10275
10271
10270
10274
10271
10258
10242
10233
10232
10231
10226
10224
10231
10244
10247
10236
10220
10215
10223
10233
10232
10221
10214
10224
10243
10259
10261
10256
10252
10255
10261
10269
10280
10294
10304
10297
10268
10229
10203
10210
10245
10282
10291
10262
10214
10185
10200
10250
10297
10308
10279
10241
10227
10245
10272
10285
10281
10280
10291
10303
10299
10276
10255
10254
10266
10268
10250
10228
10227
10252
10279
10283
10266
10254
10264
10285
10294
10281
10260
10250
10249
10239
10211
10186
10193
10236
10287
10307
10285
10244
10213
10204
10206
10204
10198
10197
10206
10219
10231
10247
10271
10300
10316
10302
10259
10207
10174
10173
10196
10222
10236
10237
10233
10232
10234
10234
10231
10230
10234
10240
10234
10211
10182
10173
10199
10245
10281
10280
10247
10211
10197
10207
10219
10217
10207
10206
10221
10244
10259
10260
10253
10250
10250
10247
10239
10229
10223
10221
10216
10204
10190
10185
10191
10204
10212
10211
10206
10210
10231
10262
10283
10278
10244
10199
10166
10159
10176
10200
10220
10233
10244
10254
10262
10269
10278
10290
10293
10271
10222
10169
10142
10148
10166
10172
10164
10173
10221
10291
10337
10326
10272
10225
10225
10262
10295
10295
10269
10249
10259
10290
10320
10334
10331
10317
10295
10271
10250
10241
10247
10260
10273
10279
10278
10264
10232
10188
10152
10147
10177
10222
10254
10257
10239
10217
10199
10185
10175
10176
10193
10223
10246
10248
10234
10221
10220
10228
10226
10203
10166
10136
10131
10151
10183
10210
10229
10242
10252
10250
10225
10178
10131
10116
10150
10217
10277
10309
10330
10385
10499
10651
10785
10863
10897
10933
11000
11085
11143
11139
11074
10970
10841
10685
10505
10319
10159
10047
9983
9956
9954
9977
10019
10066
10099
10113
10123
10147
10184
10215
10219
10198
10175
10170
10189
10215
10233
10236
10234
10237
10245
10252
10250
10241
10229
10219
10213
10210
10213
10223
10237
10245
10241
10228
10222
10230
10246
10248
10223
10183
10161
10179
10231
10287
10319
10325
10320
10318
10314
10298
10271
10251
10253
10271
10286
10282
10265
10254
10259
10270
10274
10268
10263
10267
10279
10287
10286
10284
10291
10307
10320
10318
10298
10272
10256
10261
10293
10342
10389
10417
10416
10399
10384
10383
10391
10396
10395
10394
10401
10412
10414
10407
10407
10430
10476
10524
10550
10549
10535
10526
10525
10526
10530
10543
10565
10584
10585
10567
10548
10551
10576
10599
10597
10570
10542
10536
10557
10586
10601
10594
10573
10552
10541
10545
10561
10577
10577
10552
10507
10459
10423
10404
10396
10394
10397
10400
10398
10386
10365
10349
10346
10350
10345
10322
10293
10278
10285
10296
10285
10241
10186
10160
10182
10241
10296
10315
10293
10251
10217
10203
10209
10224
10240
10253
10260
10256
10239
10218
10202
10204
10223
10245
10258
10253
10233
10208
10189
10185
10199
10230
10266
10290
10287
10261
10232
10220
10231
10251
10260
10252
10238
10233
10244
10260
10270
10267
10260
10259
10268
10281
10283
10266
10234
10208
10210
10246
10295
10316
10285
10219
10164
10159
10204
10257
10276
10253
10218
10206
10223
10246
10255
10248
10242
10246
10250
10241
10218
10197
10195
10214
10237
10251
10253
10250
10243
10233
10218
10207
10208
10222
10238
10245
10236
10216
10192
10173
10170
10189
10225
10260
10271
10253
10222
10207
10218
10240
10245
10223
10194
10184
10199
10218
10217
10195
10176
10178
10195
10203
10189
10167
10166
10197
10238
10251
10218
10161
10121
10130
10180
10235
10264
10258
10237
10227
10236
10252
10257
10246
10228
10219
10223
10227
10218
10195
10174
10170
10184
10199
10203
10194
10188
10191
10199
10198
10184
10172
10175
10194
10212
10212
10196
10180
10177
10186
10195
10200
10208
10225
10242
10241
10216
10182
10163
10170
10190
10204
10203
10197
10195
10196
10195
10194
10203
10229
10259
10264
10230
10173
10129
10127
10165
10221
10266
10289
10288
10268
10239
10218
10224
10261
10310
10338
10325
10281
10233
10201
10189
10188
10196
10219
10257
10289
10293
10259
10208
10173
10172
10195
10211
10205
10177
10146
10126
10121
10133
10160
10196
10228
10234
10207
10157
10115
10103
10122
10153
10175
10183
10186
10193
10203
10208
10202
10192
10186
10185
10180
10162
10136
10117
10121
10146
10175
10195
10204
10218
10256
10326
10421
10524
10620
10702
10772
10840
10915
11000
11082
11139
11149
11100
10994
10840
10653
10452
10264
10115
10020
9974
9962
9970
9992
10025
10061
10090
10110
10129
10156
10188
10202
10183
10139
10103
10108
10153
10208
10238
10230
10195
10156
10126
10105
10097
10105
10134
10173
10206
10221
10218
10211
10216
10233
10256
10271
10264
10232
10187
10152
10150
10187
10243
10286
10291
10258
10210
10171
10158
10170
10198
10229
10246
10241
10215
10186
10175
10189
10218
10245
10261
10266
10262
10245
10215
10188
10190
10232
10289
10318
10297
10250
10224
10248
10300
10332
10318
10278
10254
10268
10304
10325
10318
10302
10304
10332
10368
10389
10387
10374
10365
10368
10382
10404
10425
10439
10441
10433
10427
10431
10448
10470
10493
10515
10535
10543
10527
10490
10451
10434
10448
10478
10502
10515
10527
10541
10546
10528
10491
10465
10477
10518
10552
10546
10504
10465
10459
10479
10497
10490
10460
10427
10398
10366
10328
10297
10294
10324
10364
10382
10363
10320
10274
10238
10212
10199
10199
10209
10218
10214
10200
10194
10207
10227
10231
10206
10165
10133
10124
10127
10129
10132
10147
10180
10214
10224
10205
10175
10159
10166
10180
10185
10178
10170
10168
10170
10169
10165
10168
10180
10198
10212
10219
10220
10216
10203
10182
10160
10154
10172
10202
10224
10224
10203
10180
10172
10187
10216
10245
10255
10236
10192
10143
10114
10118
10148
10187
10217
10232
10229
10209
10181
10161
10165
10193
10225
10233
10205
10159
10127
10124
10143
10166
10184
10200
10213
10212
10190
10158
10142
10158
10195
10225
10228
10205
10175
10152
10140
10141
10160
10192
10218
10215
10174
10120
10091
10105
10146
10183
10197
10194
10186
10177
10157
10132
10120
10136
10174
10206
10207
10179
10144
10125
10127
10142
10160
10177
10186
10183
10165
10144
10136
10146
10160
10163
10149
10130
10120
10124
10135
10149
10168
10189
10200
10185
10146
10104
10089
10110
10148
10178
10190
10190
10184
10168
10133
10088
10056
10061
10103
10158
10198
10209
10200
10184
10170
10161
10158
10164
10179
10194
10201
10192
10171
10147
10131
10130
10144
10165
10180
10177
10158
10134
10120
10123
10141
10165
10186
10197
10193
10172
10142
10122
10127
10156
10192
10212
10214
10214
10225
10245
10253
10236
10199
10168
10158
10166
10174
10171
10161
10153
10148
10139
10120
10101
10095
10108
10131
10150
10160
10170
10187
10205
10208
10186
10147
10112
10098
10103
10115
10120
10114
10102
10093
10089
10095
10112
10136
10156
10161
10143
10111
10085
10080
10094
10111
10114
10101
10090
10100
10142
10208
10285
10362
10438
10518
10602
10690
10778
10868
10959
11041
11090
11085
11014
10885
10720
10544
10373
10219
10089
9991
9930
9901
9895
9904
9930
9972
10026
10077
10110
10117
10107
10094
10090
10097
10112
10126
10135
10130
10112
10089
10078
10094
10136
10178
10196
10177
10138
10105
10096
10107
10127
10150
10177
10206
10226
10219
10185
10142
10117
10122
10147
10168
10171
10160
10143
10131
10127
10136
10161
10198
10230
10232
10199
10150
10116
10115
10140
10169
10189
10204
10227
10257
10275
10264
10224
10178
10157
10170
10205
10235
10245
10238
10229
10234
10252
10273
10285
10280
10262
10237
10216
10205
10210
10234
10277
10327
10365
10374
10354
10322
10306
10320
10356
10390
10405
10402
10396
10395
10401
10405
10407
10415
10434
10455
10460
10442
10415
10404
10424
10465
10501
10514
10507
10495
10490
10490
10491
10489
10488
10489
10489
10485
10480
10479
10485
10491
10485
10464
10434
10408
10390
10372
10351
10327
10310
10304
10304
10297
10272
10232
10193
10168
10165
10176
10187
10185
10171
10155
10149
10158
10172
10183
10187
10191
10195
10190
10165
10123
10086
10082
10115
10160
10181
10164
10125
10094
10093
10116
10147
10169
10177
10171
10153
10133
10124
10137
10166
10194
10203
10187
10159
10132
10114
10107
10117
10144
10179
10201
10192
10159
10124
10110
10114
10120
10119
10121
10144
10188
10225
10227
10190
10140
10109
10109
10131
10161
10191
10216
10225
10211
10177
10143
10126
10128
10138
10145
10155
10176
10207
10225
10213
10175
10135
10110
10101
10098
10102
10125
10175
10230
10255
10230
10171
10117
10094
10097
10104
10105
10107
10123
10143
10146
10119
10077
10054
10073
10122
10165
10175
10152
10120
10106
10119
10147
10173
10184
10178
10158
10131
10105
10090
10094
10114
10139
10153
10147
10124
10097
10079
10077
10090
10110
10129
10139
10137
10124
10109
10101
10107
10125
10145
10156
10150
10125
10087
10051
10034
10047
10088
10137
10170
10174
10159
10143
10140
10150
10163
10169
10164
10148
10124
10099
10082
10082
10099
10125
10149
10162
10161
10148
10125
10104
10102
10128
10169
10192
10175
10128
10087
10078
10098
10121
10132
10142
10170
10206
10217
10186
10139
10127
10177
10254
10295
10267
10200
10148
10134
10135
10120
10095
10094
10135
10188
10201
10155
10088
10056
10077
10118
10134
10109
10071
10053
10064
10085
10100
10103
10106
10114
10123
10125
10116
10100
10085
10081
10094
10122
10148
10154
10138
10118
10115
10128
10134
10111
10067
10037
10047
10084
10112
10112
10102
10125
10205
10321
10433
10517
10582
10653
10745
10852
10958
11042
11087
11072
10988
10850
10693
10546
10413
10272
10109
9948
9835
9802
9842
9912
9975
10019
10053
10083
10096
10078
10034
9996
9994
10033
10083
10113
10109
10090
10078
10084
10095
10100
10099
10109
10135
10166
10180
10167
10142
10128
10138
10159
10171
10165
10148
10130
10116
10103
10099
10114
10149
10182
10186
10156
10118
10111
10144
10186
10198
10177
10154
10162
10196
10220
10204
10164
10142
10162
10204
10225
10203
10159
10130
10135
10160
10181
10190
10194
10198
10195
10179
10160
10162
10198
10252
10288
10287
10263
10248
10259
10285
10299
10288
10263
10248
10253
10269
10280
10278
10277
10293
10332
10379
10408
10401
10364
10325
10314
10344
10401
10454
10480
10477
10460
10444
10434
10427
10424
10428
10444
10468
10491
10508
10525
10546
10567
10574
10554
10512
10468
10440
10429
10424
10414
10407
10412
10433
10453
10450
10420
10379
10352
10349
10360
10364
10349
10316
10274
10233
10201
10187
10199
10227
10250
10244
10205
10159
10141
10161
10201
10225
10215
10182
10153
10141
10135
10121
10100
10091
10109
10144
10167
10157
10121
10089
10088
10116
10149
10164
10155
10136
10121
10115
10116
10122
10134
10152
10171
10181
10177
10161
10141
10124
10116
10119
10130
10142
10145
10143
10144
10158
10180
10188
10168
10126
10092
10092
10123
10157
10170
10162
10158
10173
10198
10205
10181
10140
10112
10110
10122
10132
10135
10141
10153
10162
10151
10124
10103
10109
10142
10175
10184
10168
10148
10144
10156
10165
10158
10135
10113
10105
10114
10135
10156
10168
10165
10152
10136
10127
10124
10118
10104
10087
10083
10099
10132
10162
10174
10164
10143
10126
10127
10147
10175
10194
10187
10152
10108
10082
10086
10110
10129
10126
10106
10085
10070
10060
10054
10057
10077
10110
10135
10134
10109
10080
10065
10067
10074
10081
10095
10118
10140
10142
10124
10108
10121
10163
10203
10206
10165
10109
10074
10075
10100
10131
10154
10169
10174
10163
10138
10112
10098
10100
10106
10105
10093
10078
10070
10070
10080
10097
10119
10139
10150
10144
10126
10103
10086
10079
10087
10107
10136
10160
10166
10153
10139
10143
10168
10198
10213
10206
10193
10187
10189
10186
10169
10144
10125
10122
10128
10130
10121
10106
10095
10096
10107
10122
10132
10131
10122
10110
10101
10096
10086
10067
10049
10045
10060
10083
10094
10089
10082
10091
10113
10129
10122
10098
10081
10084
10097
10100
10085
10066
10058
10059
10057
10046
10040
10060
10109
10173
10237
10301
10379
10471
10567
10653
10735
10831
10945
11050
11107
11092
11012
10895
10757
10601
10430
10257
10103
9981
9886
9813
9767
9761
9800
9867
9937
9992
10031
10060
10079
10085
10077
10067
10073
10099
10132
10150
10140
10108
10082
10083
10114
10151
10159
10125
10070
10040
10064
10134
10203
10223
10188
10129
10086
10074
10080
10085
10084
10090
10112
10138
10154
10151
10140
10134
10141
10151
10155
10152
10146
10139
10135
10136
10147
10172
10197
10203
10172
10113
10057
10041
10079
10153
10220
10248
10232
10195
10166
10160
10171
10183
10189
10197
10214
10237
10252
10248
10230
10216
10221
10243
10271
10293
10304
10305
10295
10276
10254
10240
10244
10266
10299
10332
10356
10367
10366
10360
10363
10386
10426
10465
10481
10467
10443
10435
10457
10494
10519
10511
10473
10426
10395
10393
10419
10457
10489
10500
10492
10477
10471
10477
10485
10483
10468
10445
10416
10383
10348
10325
10332
10366
10398
10392
10337
10264
10216
10215
10242
10256
10237
10200
10176
10182
10208
10231
10232
10209
10174
10141
10119
10111
10108
10100
10086
10075
10078
10098
10121
10133
10127
10115
10106
10105
10106
10111
10125
10151
10170
10162
10123
10077
10063
10093
10145
10180
10181
10159
10141
10136
10129
10106
10071
10050
10062
10103
10145
10162
10146
10116
10094
10095
10115
10140
10155
10158
10155
10153
10153
10146
10129
10112
10107
10116
10126
10125
10113
10108
10122
10147
10159
10146
10121
10112
10130
10155
10162
10145
10121
10110
10108
10099
10077
10059
10064
10093
10121
10129
10122
10118
10125
10129
10112
10083
10068
10091
10139
10174
10170
10131
10088
10065
10063
10073
10085
10099
10113
10120
10111
10091
10072
10069
10079
10092
10098
10094
10085
10076
10075
10088
10112
10137
10141
10118
10082
10060
10068
10092
10106
10094
10070
10059
10068
10080
10075
10053
10038
10047
10070
10078
10053
10010
9983
10000
10055
10118
10160
10172
10160
10133
10098
10063
10043
10050
10083
10124
10145
10138
10112
10089
10082
10084
10086
10086
10094
10115
10134
10123
10076
10020
10002
10042
10105
10127
10070
9963
9887
9899
9990
10094
10149
10147
10123
10113
10119
10120
10107
10098
10115
10152
10183
10184
10164
10146
10150
10166
10176
10174
10171
10174
10172
10148
10104
10063
10049
10062
10079
10080
10070
10066
10072
10075
10060
10036
10032
10064
10114
10141
10121
10069
10027
10022
10047
10070
10073
10060
10046
10040
10039
10037
10034
10038
10051
10070
10087
10095
10089
10070
10046
10031
10037
10057
10069
10053
10015
9986
9995
10049
10124
10197
10262
10332
10414
10499
10575
10646
10734
10852
10980
11072
11091
11033
10924
10791
10644
10482
10313
10154
10023
9922
9839
9771
9728
9730
9781
9862
9947
10016
10063
10088
10092
10077
10055
10041
10046
10061
10070
10066
10059
10069
10102
10141
10156
10132
10082
10039
10030
10054
10089
10108
10105
10093
10090
10104
10124
10134
10124
10098
10068
10048
10046
10064
10088
10104
10104
10097
10103
10136
10181
10202
10171
10098
10027
10007
10047
10113
10162
10176
10170
10164
10159
10147
10124
10111
10125
10161
10188
10181
10147
10117
10119
10149
10179
10190
10188
10187
10195
10197
10182
10158
10149
10170
10213
10254
10271
10267
10255
10252
10262
10280
10298
10313
10320
10313
10295
10274
10264
10279
10316
10365
10406
10425
10415
10385
10357
10350
10372
10415
10455
10473
10467
10448
10435
10439
10454
10467
10464
10444
10417
10398
10397
10409
10419
10414
10394
10371
10357
10353
10347
10327
10296
10268
10259
10267
10278
10276
10252
10216
10178
10147
10129
10125
10136
10153
10161
10153
10132
10120
10129
10156
10174
10162
10121
10080
10068
10087
10114
10118
10096
10068
10060
10074
10092
10093
10079
10069
10080
10102
10110
10087
10047
10022
10036
10086
10138
10160
10143
10105
10073
10065
10075
10087
10088
10084
10087
10105
10127
10134
10114
10078
10054
10063
10102
10146
10169
10161
10134
10105
10086
10086
10108
10150
10195
10220
10205
10154
10094
10056
10052
10071
10092
10099
10094
10082
10069
10061
10063
10079
10104
10124
10130
10123
10109
10093
10076
10062
10060
10077
10104
10114
10091
10048
10020
10033
10077
10113
10115
10088
10061
10054
10058
10056
10047
10051
10081
10126
10154
10146
10114
10080
10059
10048
10039
10037
10051
10077
10095
10087
10060
10043
10059
10097
10123
10111
10064
10015
9995
10010
10040
10061
10064
10057
10050
10050
10053
10054
10055
10062
10076
10091
10091
10072
10043
10027
10037
10063
10083
10083
10066
10049
10041
10037
10033
10035
10055
10092
10122
10120
10087
10052
10047
10070
10089
10079
10047
10026
10035
10062
10079
10074
10066
10078
10108
10130
10118
10079
10044
10040
10068
10108
10137
10145
10134
10112
10085
10063
10050
10052
10067
10098
10142
10191
10222
10211
10158
10090
10049
10050
10075
10089
10076
10048
10029
10030
10038
10043
10042
10047
10060
10073
10075
10070
10070
10079
10086
10076
10048
10018
10003
10005
10015
10026
10039
10057
10074
10079
10063
10035
10009
9996
9995
10000
10004
10006
10005
9998
9990
9989
10009
10054
10116
10183
10245
10299
10351
10408
10483
10581
10704
10835
10950
11024
11046
11020
10952
10850
10719
10564
10396
10229
10075
9951
9865
9820
9804
9802
9808
9828
9868
9919
9961
9976
9971
9971
9995
10038
10075
10084
10065
10037
10021
10025
10050
10086
10120
10131
10107
10057
10014
10007
10037
10071
10075
10048
10019
10019
10049
10082
10094
10088
10086
10095
10103
10094
10069
10050
10056
10084
10109
10115
10105
10095
10096
10101
10100
10096
10102
10127
10165
10192
10187
10147
10094
10062
10069
10108
10145
10150
10116
10071
10051
10073
10123
10168
10190
10187
10170
10146
10119
10099
10103
10140
10196
10237
10245
10228
10217
10229
10250
10258
10245
10232
10237
10258
10271
10262
10247
10252
10285
10326
10344
10337
10325
10326
10337
10341
10336
10339
10371
10422
10458
10450
10409
10371
10367
10392
10416
10417
10403
10393
10401
10418
10428
10423
10412
10404
10399
10387
10361
10322
10281
10250
10237
10245
10263
10276
10271
10251
10231
10224
10232
10236
10219
10176
10125
10086
10067
10064
10072
10086
10105
10121
10123
10104
10076
10054
10050
10059
10069
10078
10090
10108
10122
10118
10090
10055
10040
10060
10101
10132
10127
10087
10038
10006
10002
10019
10039
10054
10059
10055
10046
10037
10037
10055
10083
10102
10095
10065
10039
10045
10085
10130
10146
10123
10089
10074
10088
10107
10105
10079
10056
10060
10089
10116
10115
10088
10058
10049
10071
10113
10160
10194
10202
10177
10126
10073
10042
10041
10054
10062
10057
10045
10036
10034
10038
10047
10065
10087
10096
10081
10050
10028
10031
10052
10065
10059
10049
10058
10081
10090
10062
10018
9999
10030
10083
10110
10092
10057
10052
10084
10120
10119
10082
10046
10041
10059
10071
10062
10045
10044
10061
10072
10063
10040
10025
10028
10037
10040
10039
10046
10062
10072
10061
10036
10017
10016
10025
10030
10030
10042
10070
10092
10081
10035
9989
9983
10023
10073
10094
10076
10047
10037
10049
10066
10072
10069
10069
10073
10074
10062
10044
10031
10028
10031
10033
10034
10039
10046
10050
10044
10032
10024
10026
10037
10048
10054
10055
10054
10055
10059
10070
10094
10127
10154
10164
10152
10129
10112
10109
10118
10127
10129
10119
10100
10079
10063
10060
10069
10085
10095
10090
10067
10036
10008
9995
10001
10019
10037
10048
10049
10045
10040
10036
10033
10036
10046
10057
10059
10041
10009
9983
9982
10005
10027
10024
9990
9949
9929
9943
9981
10024
10055
10066
10055
10022
9982
9956
9958
9988
10028
10061
10091
10130
10187
10252
10313
10369
10440
10537
10654
10767
10856
10923
10975
11008
10993
10904
10744
10552
10369
10216
10080
9947
9821
9732
9705
9742
9816
9893
9949
9979
9988
9983
9968
9958
9966
10000
10049
10087
10090
10057
10014
9995
10015
10057
10084
10073
10031
9993
9987
10015
10052
10073
10070
10058
10054
10065
10080
10085
10075
10054
10036
10032
10044
10063
10081
10090
10091
10087
10081
10074
10064
10055
10052
10058
10073
10092
10112
10130
10142
10141
10125
10101
10083
10080
10093
10109
10122
10128
10129
10119
10095
10064
10051
10078
10139
10199
10213
10174
10113
10077
10090
10133
10170
10181
10170
10154
10143
10137
10133
10141
10168
10212
10257
10288
10296
10289
10280
10278
10288
10307
10329
10343
10343
10330
10317
10318
10333
10353
10367
10375
10385
10398
10411
10414
10409
10410
10423
10443
10448
10424
10379
10338
10323
10333
10355
10371
10379
10379
10370
10343
10301
10259
10245
10266
10303
10318
10290
10232
10178
10152
10150
10150
10141
10132
10133
10141
10135
10102
10058
10035
10049
10086
10109
10100
10068
10038
10022
10011
9997
9985
9988
10012
10042
10058
10054
10042
10034
10034
10035
10036
10045
10060
10069
10057
10031
10019
10042
10087
10115
10096
10041
9989
9973
9991
10023
10052
10078
10100
10103
10075
10025
9991
10003
10055
10101
10103
10065
10026
10018
10035
10048
10040
10028
10037
10069
10097
10089
10049
10015
10022
10075
10137
10165
10137
10073
10011
9986
10007
10054
10096
10108
10088
10050
10017
10000
9999
10007
10020
10038
10060
10079
10084
10069
10044
10023
10018
10027
10035
10026
10001
9977
9976
10005
10045
10070
10063
10035
10011
10006
10015
10020
10018
10018
10032
10056
10071
10062
10037
10020
10022
10036
10043
10038
10031
10033
10039
10036
10015
9990
9982
10000
10032
10051
10045
10018
9990
9977
9985
10010
10044
10076
10092
10081
10042
9987
9941
9928
9956
10006
10047
10053
10028
9997
9988
10005
10028
10034
10021
10010
10016
10032
10033
10012
9988
9989
10022
10060
10073
10057
10036
10033
10043
10047
10033
10014
10009
10018
10021
10007
9992
10000
10035
10073
10085
10067
10038
10019
10012
10006
10004
10020
10061
10107
10125
10101
10056
10032
10048
10090
10121
10123
10103
10081
10066
10051
10031
10008
9989
9981
9982
9988
9997
10009
10023
10038
10047
10047
10037
10020
10006
10006
10022
10041
10044
10022
9984
9955
9947
9956
9965
9970
9975
9991
10016
10037
10045
10041
10036
10034
10033
10027
10015
10002
9986
9966
9948
9947
9980
10047
10131
10214
10289
10362
10442
10529
10620
10714
10817
10920
11002
11030
10983
10868
10713
10550
10396
10255
10122
9995
9883
9802
9764
9770
9806
9852
9894
9932
9969
10001
10019
10016
10002
9992
9993
9994
9985
9971
9974
10005
10051
10083
10086
10069
10054
10049
10047
10036
10026
10035
10066
10096
10100
10073
10037
10016
10016
10024
10031
10043
10069
10099
10111
10091
10047
10006
9990
10003
10034
10067
10091
10102
10096
10082
10071
10070
10076
10077
10071
10070
10084
10102
10101
10073
10041
10038
10078
10135
10171
10169
10148
10135
10140
10153
10162
10166
10169
10169
10156
10134
10122
10139
10179
10214
10224
10212
10201
10201
10207
10204
10199
10206
10235
10268
10284
10276
10260
10254
10263
10276
10291
10312
10341
10364
10365
10344
10325
10331
10362
10392
10402
10397
10394
10401
10406
10402
10399
10415
10451
10480
10473
10430
10380
10351
10348
10356
10358
10356
10351
10337
10302
10251
10207
10190
10199
10209
10204
10190
10184
10188
10187
10168
10141
10129
10141
10158
10153
10121
10086
10075
10096
10129
10151
10149
10125
10084
10039
10007
10007
10040
10082
10103
10092
10068
10059
10071
10088
10092
10087
10083
10088
10089
10078
10062
10062
10085
10114
10124
10110
10094
10097
10117
10131
10124
10103
10092
10101
10114
10112
10090
10065
10057
10069
10091
10111
10124
10135
10143
10145
10144
10151
10170
10193
10200
10177
10126
10069
10033
10035
10076
10143
10211
10253
10249
10201
10137
10091
10085
10115
10154
10176
10171
10147
10123
10110
10111
10117
10120
10114
10097
10074
10055
10051
10070
10109
10154
10185
10193
10181
10161
10145
10132
10119
10103
10094
10102
10128
10160
10177
10169
10142
10115
10104
10112
10130
10143
10142
10129
10114
10109
10125
10157
10189
10204
10194
10165
10133
10114
10113
10125
10143
10158
10169
10174
10172
10162
10147
10136
10138
10158
10189
10210
10204
10169
10125
10098
10103
10129
10155
10167
10166
10164
10168
10171
10168
10162
10159
10161
10158
10142
10120
10110
10130
10180
10239
10280
10287
10259
10213
10169
10146
10149
10164
10165
10139
10100
10079
10095
10139
10180
10199
10204
10216
10238
10250
10231
10190
10160
10171
10220
10274
10308
10319
10318
10310
10286
10242
10194
10173
10191
10230
10256
10245
10200
10140
10088
10061
10069
10114
10178
10227
10234
10202
10162
10149
10168
10198
10214
10213
10209
10213
10215
10203
10176
10154
10155
10180
10207
10215
10199
10177
10169
10183
10211
10236
10247
10241
10225
10205
10184
10163
10147
10142
10158
10194
10240
10282
10325
10388
10494
10639
10788
10901
10965
11003
11048
11109
11160
11164
11101
10978
10816
10633
10442
10265
10127
10049
10027
10035
10050
10062
10077
10103
10137
10172
10203
10234
10265
10287
10291
10276
10253
10237
10237
10247
10252
10243
10222
10203
10202
10224
10261
10294
10311
10313
10307
10301
10291
10272
10244
10226
10234
10269
10309
10328
10315
10282
10254
10249
10266
10291
10315
10333
10345
10353
10359
10361
10357
10343
10324
10311
10311
10325
10336
10331
10310
10296
10308
10346
10384
10398
10383
10360
10349
10358
10373
10384
10388
10389
10389
10384
10377
10379
10395
10417
10428
10415
10392
10385
10411
10463
10515
10547
10556
10548
10528
10500
10471
10459
10475
10515
10560
10589
10600
10599
10595
10591
10586
10584
10592
10610
10629
10639
10636
10629
10629
10641
10660
10684
10708
10727
10731
10717
10695
10680
10683
10695
10699
10683
10653
10627
10615
10615
10615
10606
10587
10561
10534
10515
10513
10529
10553
10565
10554
10528
10500
10474
10439
10389
10340
10325
10360
10421
10465
10462
10425
10394
10392
10409
10415
10400
10383
10388
10409
10416
10381
10319
10272
10277
10331
10393
10424
10414
10383
10362
10364
10383
10405
10420
10426
10423
10413
10394
10370
10356
10363
10393
10425
10428
10389
10331
10302
10336
10422
10508
10538
10500
10430
10375
10360
10371
10385
10392
10398
10412
10425
10425
10408
10384
10373
10381
10404
10431
10451
10460
10453
10429
10400
10383
10392
10422
10453
10460
10441
10410
10388
10389
10411
10442
10471
10491
10494
10477
10445
10411
10391
10393
10415
10439
10450
10442
10425
10414
10421
10441
10456
10453
10435
10417
10409
10411
10409
10397
10381
10378
10397
10431
10457
10455
10425
10383
10354
10355
10385
10424
10450
10451
10437
10426
10434
10453
10463
10449
10417
10387
10375
10378
10385
10391
10403
10429
10461
10478
10466
10430
10388
10364
10366
10395
10443
10499
10538
10540
10497
10431
10379
10364
10378
10397
10403
10402
10406
10424
10447
10466
10478
10485
10485
10469
10435
10393
10365
10361
10377
10398
10416
10428
10435
10436
10435
10445
10477
10522
10552
10539
10487
10427
10393
10392
10405
10413
10416
10426
10447
10464
10462
10449
10446
10469
10504
10522
10513
10489
10476
10481
10491
10491
10484
10486
10507
10535
10550
10544
10529
10522
10529
10539
10540
10530
10512
10493
10473
10450
10427
10413
10417
10439
10467
10481
10465
10420
10371
10349
10373
10430
10483
10499
10476
10442
10428
10441
10463
10473
10467
10459
10459
10461
10450
10425
10400
10398
10422
10454
10470
10457
10429
10404
10397
10404
10414
10423
10435
10461
10505
10559
10617
10681
10761
10864
10978
11083
11163
11228
11306
11412
11517
11559
11489
11310
11083
10880
10729
10604
10465
10309
10179
10124
10154
10231
10302
10342
10362
10387
10425
10462
10479
10470
10446
10426
10419
10429
10448
10465
10470
10462
10448
10443
10454
10474
10491
10500
10502
10505
10503
10486
10453
10419
10410
10436
10480
10511
10510
10486
10464
10458
10461
10460
10455
10457
10474
10501
10519
10521
10515
10512
10515
10512
10495
10471
10460
10470
10490
10503
10504
10508
10531
10568
10597
10595
10561
10518
10491
10490
10510
10538
10566
10586
10587
10567
10537
10518
10529
10561
10594
10605
10595
10578
10571
10578
10592
10610
10631
10648
10652
10637
10616
10617
10658
10722
10769
10769
10727
10682
10668
10687
10713
10724
10724
10733
10763
10800
10819
10809
10785
10774
10789
10817
10836
10836
10823
10811
10805
10804
10802
10805
10816
10830
10833
10813
10774
10740
10733
10753
10775
10767
10718
10643
10578
10552
10567
10606
10641
10655
10645
10622
10596
10572
10555
10545
10543
10546
10549
10542
10524
10503
10493
10498
10511
10519
10513
10497
10482
10476
10473
10468
10465
10475
10505
10542
10561
10547
10507
10471
10458
10467
10475
10463
10437
10416
10418
10438
10456
10457
10448
10446
10461
10480
10479
10449
10404
10379
10400
10460
10524
10554
10539
10502
10477
10480
10504
10527
10535
10530
10519
10504
10483
10463
10456
10469
10492
10504
10495
10472
10455
10447
10440
10423
10405
10411
10456
10518
10557
10549
10509
10476
10471
10488
10500
10496
10484
10477
10471
10454
10426
10410
10428
10477
10524
10534
10503
10459
10434
10437
10455
10471
10481
10491
10501
10504
10498
10490
10485
10484
10479
10464
10447
10437
10435
10430
10418
10407
10413
10438
10465
10472
10455
10433
10430
10448
10467
10469
10451
10433
10429
10437
10444
10444
10442
10449
10464
10474
10469
10450
10429
10418
10422
10435
10454
10473
10487
10491
10483
10466
10449
10435
10424
10416
10412
10414
10419
10417
10404
10394
10408
10453
10506
10531
10508
10455
10418
10429
10477
10517
10514
10472
10428
10415
10431
10451
10453
10441
10434
10441
10447
10431
10394
10363
10365
10405
10454
10475
10456
10422
10405
10423
10460
10487
10485
10460
10435
10428
10439
10456
10467
10470
10470
10475
10490
10515
10546
10575
10586
10569
10525
10475
10444
10447
10471
10489
10482
10455
10433
10434
10453
10472
10472
10456
10433
10413
10396
10381
10378
10395
10429
10458
10457
10422
10375
10347
10352
10375
10393
10394
10385
10380
10384
10390
10395
10403
10423
10449
10466
10454
10414
10367
10341
10348
10376
10401
10405
10389
10370
10362
10374
10405
10453
10520
10603
10692
10775
10844
10910
10990
11094
11212
11317
11382
11394
11350
11254
11113
10939
10757
10594
10462
10352
10250
10158
10096
10089
10134
10206
10272
10317
10346
10370
10387
10389
10379
10375
10392
10429
10462
10470
10449
10411
10377
10358
10359
10381
10416
10445
10445
10410
10363
10340
10364
10417
10461
10470
10448
10423
10414
10417
10420
10419
10426
10444
10465
10473
10465
10454
10454
10457
10443
10407
10368
10360
10392
10444
10478
10481
10467
10466
10485
10505
10501
10469
10432
10415
10428
10458
10485
10497
10496
10490
10487
10489
10497
10512
10530
10543
10544
10532
10512
10494
10487
10495
10515
10541
10565
10580
10582
10571
10551
10532
10524
10537
10567
10601
10621
10624
10618
10620
10638
10663
10681
10687
10691
10702
10722
10739
10745
10743
10748
10766
10787
10794
10778
10752
10735
10737
10750
10761
10765
10766
10768
10770
10766
10754
10742
10738
10741
10740
10721
10685
10640
10600
10574
10561
10558
10562
10565
10559
10542
10516
10491
10472
10462
10453
10443
10429
10414
10401
10391
10390
10401
10422
10444
10454
10444
10422
10402
10399
10416
10440
10454
10447
10420
10385
10357
10349
10360
10382
10400
10405
10397
10385
10377
10374
10370
10361
10349
10344
10350
10365
10380
10389
10396
10409
10428
10441
10434
10402
10360
10330
10326
10343
10368
10392
10415
10438
10455
10449
10412
10358
10316
10311
10342
10385
10416
10425
10419
10412
10405
10395
10384
10385
10407
10440
10459
10443
10395
10346
10327
10345
10378
10398
10395
10382
10376
10385
10397
10401
10393
10384
10378
10369
10355
10340
10342
10373
10419
10448
10434
10386
10336
10318
10337
10368
10386
10385
10379
10380
10385
10379
10359
10339
10337
10357
10381
10389
10371
10339
10312
10305
10323
10358
10393
10406
10386
10339
10293
10276
10293
10324
10347
10357
10364
10375
10379
10363
10327
10299
10306
10345
10387
10402
10387
10365
10355
10356
10354
10348
10351
10371
10395
10396
10365
10324
10308
10331
10372
10399
10400
10387
10376
10369
10357
10337
10324
10328
10345
10355
10343
10317
10297
10302
10328
10359
10383
10395
10396
10392
10389
10398
10418
10438
10440
10419
10393
10387
10410
10438
10442
10411
10365
10338
10344
10369
10390
10399
10400
10402
10399
10383
10352
10321
10308
10318
10340
10357
10358
10343
10323
10308
10302
10306
10319
10334
10349
10361
10370
10377
10377
10367
10346
10320
10301
10301
10319
10345
10363
10365
10351
10335
10326
10328
10333
10331
10315
10285
10250
10227
10236
10290
10389
10509
10618
10700
10766
10846
10957
11085
11198
11271
11307
11314
11288
11202
11042
10830
10624
10470
10371
10290
10197
10100
10038
10039
10090
10154
10201
10232
10264
10302
10335
10351
10354
10358
10369
10374
10360
10327
10294
10284
10303
10333
10353
10350
10328
10305
10293
10299
10320
10349
10377
10396
10403
10395
10374
10346
10326
10328
10357
10399
10436
10452
10446
10428
10405
10381
10359
10346
10349
10365
10383
10391
10385
10376
10371
10377
10396
10429
10472
10509
10516
10482
10424
10378
10368
10387
10405
10407
10407
10428
10471
10508
10509
10479
10453
10460
10493
10516
10503
10465
10435
10437
10465
10495
10511
10515
10518
10522
10527
10534
10550
10575
10600
10612
10610
10602
10598
10601
10609
10624
10653
10696
10736
10750
10731
10699
10685
10707
10751
10779
10768
10720
10666
10639
10654
10700
10751
10782
10784
10766
10744
10728
10718
10705
10691
10684
10695
10717
10731
10718
10678
10629
10597
10588
10590
10586
10565
10534
10505
10482
10467
10456
10451
10457
10476
10496
10496
10461
10396
10332
10307
10339
10405
10464
10481
10454
10411
10381
10374
10382
10397
10416
10439
10450
10434
10389
10341
10325
10352
10404
10446
10459
10449
10429
10409
10388
10375
10382
10415
10454
10465
10429
10365
10316
10314
10354
10407
10445
10460
10458
10442
10413
10381
10368
10386
10424
10450
10439
10396
10356
10352
10386
10439
10483
10507
10510
10494
10460
10422
10400
10409
10441
10466
10457
10418
10380
10372
10395
10421
10426
10412
10402
10412
10437
10453
10444
10419
10397
10394
10404
10417
10423
10424
10424
10419
10408
10397
10398
10415
10436
10435
10405
10367
10355
10390
10450
10493
10482
10426
10363
10334
10351
10392
10429
10445
10440
10424
10404
10384
10368
10367
10386
10420
10453
10468
10459
10434
10405
10383
10372
10373
10382
10397
10411
10420
10421
10413
10400
10387
10384
10396
10420
10444
10454
10441
10409
10373
10351
10350
10366
10391
10415
10431
10437
10433
10426
10426
10440
10461
10469
10453
10419
10396
10410
10458
10508
10525
10501
10458
10427
10419
10423
10425
10429
10447
10477
10498
10484
10437
10381
10349
10346
10360
10375
10392
10419
10450
10460
10433
10380
10338
10335
10363
10388
10381
10352
10330
10340
10375
10409
10419
10408
10387
10371
10361
10354
10348
10345
10345
10350
10354
10349
10329
10300
10280
10295
10353
10435
10507
10550
10580
10634
10730
10850
10956
11031
11092
11167
11257
11326
11339
11287
11194
11083
10951
10782
10579
10375
10216
10126
10094
10096
10117
10152
10197
10239
10265
10280
10297
10324
10356
10378
10387
10386
10384
10381
10376
10372
10379
10393
10403
10395
10375
10365
10377
10400
10403
10375
10336
10320
10339
10370
10380
10360
10340
10354
10408
10476
10521
10521
10479
10412
10348
10313
10328
10385
10449
10475
10448
10398
10369
10382
10418
10443
10443
10439
10451
10472
10472
10436
10386
10366
10395
10450
10484
10475
10443
10423
10437
10475
10511
10531
10536
10531
10517
10496
10478
10475
10493
10517
10526
10508
10474
10451
10459
10502
10560
10607
10625
10615
10592
10578
10581
10595
10606
10609
10611
10623
10647
10670
10679
10670
10656
10653
10665
10686
10702
10710
10710
10708
10707
10716
10739
10774
10803
10804
10771
10719
10678
10670
10690
10716
10730
10728
10715
10691
10656
10613
10584
10588
10627
10673
10689
10657
10591
10522
10479
10468
10477
10489
10490
10475
10449
10425
10411
10409
10409
10401
10384
10367
10363
10370
10375
10369
10360
10365
10389
10415
10415
10378
10326
10295
10306
10350
10399
10425
10425
10409
10390
10372
10356
10346
10349
10370
10404
10431
10433
10402
10351
10310
10309
10353
10421
10471
10476
10441
10395
10367
10366
10378
10388
10393
10400
10412
10420
10415
10399
10391
10406
10438
10460
10449
10406
10357
10337
10360
10409
10450
10454
10417
10359
10309
10289
10301
10333
10367
10392
10405
10407
10400
10390
10384
10389
10397
10398
10381
10352
10331
10331
10353
10379
10393
10395
10393
10395
10394
10384
10371
10369
10387
10410
10414
10386
10342
10310
10304
10316
10330
10339
10352
10371
10385
10373
10335
10296
10284
10303
10335
10350
10345
10332
10327
10330
10331
10329
10334
10358
10392
10416
10411
10383
10355
10348
10361
10379
10385
10376
10360
10342
10326
10313
10308
10316
10339
10368
10390
10393
10375
10346
10323
10319
10334
10353
10360
10349
10332
10325
10332
10348
10363
10376
10387
10394
10388
10366
10340
10336
10365
10414
10450
10455
10433
10405
10382
10363
10339
10320
10319
10342
10369
10375
10354
10323
10306
10308
10317
10319
10320
10330
10350
10365
10356
10326
10297
10290
10303
10318
10319
10307
10291
10280
10275
10274
10277
10286
10300
10312
10317
10317
10314
10307
10291
10270
10255
10258
10275
10289
10287
10280
10292
10341
10419
10502
10570
10625
10688
10777
10892
11019
11135
11223
11276
11290
11265
11200
11096
10954
10788
10618
10462
10325
10207
10109
10050
10051
10108
10183
10224
10209
10167
10150
10184
10248
10291
10289
10261
10245
10259
10283
10290
10273
10257
10264
10293
10320
10327
10316
10304
10299
10295
10285
10274
10279
10305
10337
10347
10326
10291
10274
10293
10334
10369
10375
10355
10329
10315
10315
10321
10321
10315
10310
10310
10313
10318
10322
10327
10334
10340
10339
10330
10318
10310
10312
10327
10353
10384
10410
10419
10404
10374
10347
10341
10356
10378
10395
10408
10424
10445
10457
10441
10401
10361
10350
10373
10405
10417
10400
10373
10366
10388
10430
10470
10497
10509
10507
10500
10496
10510
10547
10596
10636
10651
10641
10619
10595
10571
10548
10531
10532
10554
10587
10613
10624
10625
10627
10636
10645
10647
10640
10632
10625
10618
10608
10593
10575
10557
10539
10523
10512
10510
10517
10529
10538
10538
10524
10494
10455
10421
10404
10405
10411
10403
10379
10351
10337
10340
10346
10338
10318
10301
10301
10313
10324
10325
10324
10328
10335
10333
10314
10292
10285
10300
10320
10321
10295
10260
10244
10260
10299
10336
10349
10332
10292
10250
10227
10230
10249
10262
10259
10255
10272
10320
10370
10386
10350
10290
10251
10258
10290
10310
10295
10265
10255
10278
10316
10340
10336
10315
10296
10289
10292
10300
10310
10322
10327
10317
10291
10261
10247
10263
10301
10341
10359
10347
10310
10269
10246
10252
10283
10320
10341
10339
10319
10297
10287
10290
10300
10308
10309
10302
10291
10277
10261
10243
10226
10219
10230
10257
10285
10294
10275
10241
10216
10222
10257
10303
10333
10335
10310
10268
10225
10192
10178
10183
10200
10217
10226
10226
10224
10228
10240
10258
10275
10284
10282
10270
10253
10243
10244
10257
10272
10284
10292
10295
10292
10277
10249
10223
10213
10224
10239
10239
10217
10190
10180
10195
10221
10237
10234
10219
10205
10197
10193
10190
10194
10207
10227
10245
10250
10239
10212
10175
10143
10134
10159
10212
10268
10302
10306
10294
10286
10287
10285
10270
10249
10235
10237
10248
10259
10271
10292
10321
10339
10329
10294
10259
10246
10255
10263
10252
10228
10212
10215
10223
10215
10186
10154
10145
10166
10201
10227
10231
10216
10193
10173
10165
10169
10181
10190
10191
10186
10186
10201
10225
10247
10255
10252
10243
10231
10211
10182
10157
10149
10164
10190
10206
10202
10180
10156
10141
10142
10163
10206
10266
10330
10386
10434
10486
10555
10647
10754
10862
10957
11030
11076
11096
11090
11055
10979
10850
10668
10462
10275
10141
10060
10012
9980
9965
9980
10022
10070
10098
10106
10114
10143
10186
10215
10209
10174
10136
10122
10135
10158
10177
10187
10194
10207
10225
10242
10245
10229
10198
10171
10168
10194
10233
10253
10237
10193
10150
10134
10150
10190
10235
10267
10273
10246
10197
10153
10147
10184
10241
10277
10273
10242
10212
10201
10205
10211
10216
10222
10232
10240
10239
10234
10236
10250
10266
10269
10254
10230
10212
10210
10224
10252
10292
10337
10372
10381
10360
10320
10279
10251
10240
10245
10265
10294
10319
10327
10318
10310
10320
10353
10393
10420
10423
10406
10379
10352
10336
10342
10372
10409
10428
10421
10406
10414
10455
10503
10519
10493
10455
10443
10471
10515
10539
10537
10525
10521
10524
10517
10492
10460
10440
10442
10457
10475
10493
10510
10520
10512
10485
10446
10413
10392
10377
10362
10345
10330
10318
10303
10284
10267
10259
10262
10264
10254
10231
10210
10204
10211
10219
10218
10208
10198
10195
10199
10206
10211
10207
10191
10168
10149
10145
10158
10173
10175
10162
10147
10146
10162
10184
10198
10199
10196
10192
10186
10177
10169
10172
10181
10184
10169
10142
10126
10139
10179
10223
10248
10247
10231
10210
10191
10177
10176
10194
10227
10252
10245
10205
10155
10125
10131
10163
10197
10216
10216
10204
10190
10176
10164
10156
10153
10153
10155
10155
10152
10145
10137
10135
10145
10169
10198
10213
10201
10168
10134
10125
10149
10191
10227
10236
10218
10189
10164
10154
10154
10160
10167
10173
10175
10171
10159
10145
10135
10137
10146
10154
10152
10141
10133
10135
10146
10158
10165
10171
10182
10199
10210
10199
10166
10125
10098
10097
10118
10144
10160
10161
10148
10131
10120
10122
10139
10161
10176
10177
10164
10147
10132
10124
10123
10130
10146
10160
10158
10135
10106
10095
10117
10155
10176
10159
10118
10087
10090
10120
10151
10166
10169
10171
10172
10156
10119
10080
10068
10096
10145
10179
10178
10149
10113
10087
10075
10082
10112
10161
10207
10223
10200
10163
10148
10170
10211
10237
10233
10217
10209
10212
10208
10185
10154
10139
10153
10183
10204
10199
10174
10148
10131
10128
10135
10146
10156
10158
10149
10136
10126
10119
10111
10097
10084
10082
10093
10107
10108
10093
10079
10082
10102
10125
10136
10132
10119
10102
10080
10057
10048
10065
10101
10131
10129
10099
10063
10043
10042
10044
10045
10053
10081
10128
10185
10250
10332
10438
10552
10643
10693
10722
10771
10861
10973
11058
11076
11027
10931
10808
10662
10495
10320
10159
10031
9943
9889
9866
9869
9893
9925
9958
9991
10026
10060
10085
10095
10092
10088
10089
10090
10082
10067
10058
10064
10081
10096
10098
10094
10097
10116
10143
10158
10152
10128
10099
10083
10088
10110
10135
10149
10146
10132
10116
10105
10100
10101
10112
10137
10170
10191
10186
10157
10129
10126
10149
10177
10188
10181
10168
10163
10164
10164
10163
10168
10182
10190
10170
10120
10066
10048
10083
10151
10213
10242
10241
10231
10231
10238
10239
10228
10211
10201
10205
10214
10213
10195
10171
10165
10191
10241
10288
10306
10298
10285
10291
10316
10342
10352
10347
10342
10344
10344
10334
10317
10308
10320
10346
10372
10389
10406
10434
10468
10487
10476
10441
10408
10397
10409
10426
10435
10432
10424
10415
10407
10400
10397
10398
10400
10396
10386
10374
10365
10357
10347
10333
10320
10311
10303
10292
10279
10269
10263
10254
10233
10204
10179
10170
10174
10177
10171
10162
10165
10177
10182
10162
10125
10098
10102
10130
10151
10141
10111
10090
10098
10130
10160
10172
10169
10161
10152
10132
10098
10058
10035
10043
10076
10109
10120
10105
10080
10065
10071
10094
10122
10142
10150
10146
10136
10125
10120
10124
10134
10140
10136
10123
10111
10110
10118
10124
10121
10113
10116
10136
10159
10165
10142
10108
10089
10100
10132
10161
10174
10173
10166
10155
10139
10122
10115
10126
10143
10140
10105
10055
10029
10050
10107
10158
10172
10146
10109
10088
10089
10099
10105
10100
10090
10078
10065
10053
10049
10057
10077
10099
10113
10113
10101
10087
10079
10086
10110
10143
10171
10180
10164
10133
10104
10088
10085
10081
10067
10049
10039
10045
10064
10082
10090
10092
10096
10108
10125
10135
10131
10118
10102
10090
10085
10085
10091
10096
10092
10070
10035
10003
9995
10019
10061
10102
10127
10135
10130
10117
10097
10076
10064
10071
10092
10113
10120
10111
10095
10080
10064
10048
10039
10047
10071
10093
10096
10077
10059
10065
10099
10136
10150
10130
10094
10065
10053
10055
10064
10076
10084
10079
10052
10013
9991
10011
10074
10145
10183
10174
10141
10118
10124
10146
10162
10162
10158
10164
10179
10186
10172
10142
10117
10113
10125
10131
10112
10071
10035
10029
10055
10095
10122
10121
10101
10076
10059
10054
10056
10063
10073
10088
10103
10110
10098
10065
10019
9982
9977
10010
10065
10111
10123
10101
10066
10041
10034
10037
10041
10044
10049
10052
10045
10026
10006
10002
10019
10048
10071
10082
10094
10124
10182
10263
10357
10458
10560
10650
10721
10779
10845
10931
11020
11068
11026
10884
10673
10447
10247
10087
9966
9880
9832
9819
9835
9864
9895
9921
9941
9958
9980
10010
10044
10069
10071
10052
10027
10018
10032
10060
10089
10110
10121
10117
10094
10054
10016
10006
10034
10079
10105
10093
10056
10030
10035
10066
10096
10108
10105
10101
10101
10097
10081
10056
10036
10037
10060
10093
10119
10127
10119
10104
10095
10101
10121
10145
10159
10153
10126
10091
10067
10067
10090
10122
10143
10143
10129
10118
10120
10131
10138
10136
10134
10140
10155
10164
10159
10153
10167
10205
10245
10255
10227
10193
10190
10223
10256
10248
10198
10147
10144
10193
10255
10281
10261
10227
10222
10259
10313
10349
10351
10333
10320
10331
10364
10399
10417
10410
10385
10362
10354
10362
10375
10387
10397
10411
10424
10428
10418
10403
10399
10413
10431
10432
10413
10391
10391
10408
10413
10378
10310
10249
10232
10260
10292
10285
10238
10186
10170
10196
10231
10237
10201
10149
10116
10119
10144
10164
10159
10131
10100
10082
10084
10099
10116
10130
10140
10147
10145
10127
10087
10035
9990
9973
9992
10033
10071
10087
10082
10072
10074
10087
10092
10078
10049
10032
10046
10087
10124
10129
10104
10078
10080
10107
10129
10116
10072
10033
10034
10076
10125
10147
10134
10110
10102
10116
10136
10145
10140
10129
10117
10098
10068
10040
10032
10053
10091
10123
10132
10122
10102
10080
10055
10030
10021
10042
10090
10133
10136
10092
10028
9986
9990
10029
10072
10094
10094
10084
10078
10081
10093
10109
10122
10123
10107
10081
10061
10064
10084
10102
10101
10080
10060
10060
10078
10094
10089
10066
10045
10042
10056
10068
10063
10047
10037
10045
10065
10078
10067
10034
9997
9978
9986
10012
10041
10059
10065
10065
10067
10072
10075
10070
10057
10042
10032
10033
10042
10054
10065
10070
10071
10063
10049
10035
10030
10042
10065
10082
10080
10060
10039
10035
10045
10053
10046
10027
10010
10004
10005
10005
10006
10023
10064
10108
10122
10087
10024
9978
9980
10022
10063
10070
10041
10005
9987
9996
10021
10050
10076
10095
10099
10085
10058
10029
10006
9993
9992
10005
10033
10069
10095
10099
10089
10084
10095
10113
10119
10105
10091
10096
10123
10150
10152
10127
10094
10070
10057
10048
10045
10055
10082
10107
10105
10070
10021
9991
9996
10025
10052
10062
10055
10039
10017
9995
9977
9970
9976
9988
9997
10004
10013
10025
10033
10029
10019
10015
10024
10039
10049
10048
10041
10031
10018
10000
9987
9993
10020
10050
10055
10029
9990
9966
9969
9986
10005
10033
10088
10174
10275
10368
10448
10530
10625
10724
10810
10875
10926
10968
10977
10923
10794
10615
10428
10254
10090
9932
9799
9724
9721
9763
9806
9827
9838
9858
9890
9916
9926
9935
9965
10018
10067
10083
10065
10036
10019
10014
10012
10008
10015
10037
10059
10056
10021
9979
9966
9993
10038
10068
10066
10044
10023
10015
10018
10026
10037
10050
10060
10061
10049
10031
10020
10024
10043
10068
10083
10076
10047
10010
9990
10001
10035
10065
10069
10051
10035
10041
10068
10096
10108
10110
10116
10130
10138
10127
10104
10089
10101
10131
10150
10137
10102
10076
10085
10127
10173
10195
10187
10163
10144
10140
10148
10160
10169
10177
10189
10206
10223
10231
10225
10207
10193
10195
10218
10257
10299
10332
10350
10354
10345
10327
10309
10299
10305
10324
10345
10361
10366
10365
10363
10363
10366
10373
10383
10391
10392
10381
10362
10347
10343
10345
10344
10329
10305
10283
10272
10269
10267
10261
10260
10265
10270
10257
10217
10161
10114
10095
10100
10112
10114
10105
10093
10083
10073
10064
10060
10067
10083
10091
10080
10053
10027
10018
10025
10034
10036
10034
10035
10037
10029
10007
9985
9987
10023
10076
10115
10119
10093
10057
10031
10023
10030
10048
10066
10071
10048
10002
9960
9951
9990
10057
10116
10143
10140
10123
10108
10095
10081
10066
10056
10049
10040
10019
9993
9976
9982
10013
10055
10089
10103
10094
10069
10038
10017
10016
10035
10060
10074
10068
10052
10036
10023
10009
9990
9975
9977
10002
10034
10054
10051
10038
10036
10051
10075
10086
10077
10056
10040
10038
10044
10049
10049
10049
10049
10049
10040
10021
9999
9985
9988
10009
10039
10063
10071
10060
10039
10019
10010
10013
10020
10021
10011
9995
9982
9980
9989
10008
10029
10049
10059
10054
10029
9992
9964
9964
10000
10053
10089
10079
10027
9967
9937
9952
9995
10034
10051
10054
10054
10054
10038
10004
9969
9966
10005
10060
10088
10067
10020
9993
10011
10058
10091
10086
10052
10018
10004
10008
10011
10006
9999
9999
10008
10020
10026
10025
10020
10019
10027
10044
10063
10068
10047
10007
9971
9964
9989
10025
10044
10039
10024
10017
10025
10040
10058
10078
10104
10125
10128
10110
10089
10088
10110
10131
10128
10099
10067
10054
10054
10045
10019
9994
9994
10026
10065
10083
10069
10039
10011
9993
9982
9977
9988
10018
10053
10070
10056
10020
9984
9970
9981
10005
10028
10036
10024
9992
9957
9941
9961
10010
10062
10088
10077
10038
9994
9961
9948
9954
9972
