400
394
566
682
800
938
1076
1220
1366
1630
1874
2118
2224
2330
2310
2330
2350
2010
1672
1232
794
-141
-373
-605
-703
-803
-681
-493
-307
-213
-121
-83
-39
2
30
56
74
92
94
100
106
116
126
138
142
146
148
150
150
148
148
146
146
144
144
144
146
146
146
148
150
154
158
160
164
172
176
182
186
192
198
206
220
228
236
246
256
276
286
298
308
320
332
344
368
378
390
400
410
430
438
448
456
466
480
486
494
500
508
514
522
536
542
550
558
568
586
596
606
616
628
638
650
672
682
694
704
714
732
738
746
750
756
760
760
760
758
756
752
748
734
724
716
704
694
668
654
640
624
610
594
578
570
552
534
516
498
458
436
416
394
374
328
304
282
258
236
212
190
148
128
106
88
68
40
26
12
0
-13
-23
-35
-55
-63
-71
-77
-85
-97
-101
-105
-107
-109
-111
-113
-111
-109
-109
-105
-101
-93
-85
-79
-71
-65
-47
-35
-25
-13
-3
8
18
44
56
68
82
94
118
130
140
150
160
170
180
198
204
212
216
222
230
232
234
234
236
236
234
232
230
228
224
220
212
208
204
200
196
190
186
182
178
176
174
172
168
166
166
164
164
164
164
164
164
164
168
168
170
172
174
176
178
184
186
190
194
198
204
208
212
216
220
222
226
232
232
234
234
236
236
234
232
230
228
220
214
210
204
198
192
186
174
166
160
154
150
140
136
132
128
124
122
120
116
116
114
116
116
118
120
122
124
126
128
130
136
140
144
148
150
156
160
164
168
172
178
182
186
188
192
194
198
202
202
204
204
206
206
204
204
202
200
198
196
192
188
186
184
182
180
178
178
178
178
178
180
182
184
186
188
192
198
200
204
206
208
212
212
214
212
212
210
210
204
200
198
194
190
182
178
174
170
166
160
158
156
154
154
154
154
154
156
158
160
162
166
168
170
172
174
174
176
178
178
180
180
180
182
180
180
180
182
192
196
200
210
222
214
208
148
182
218
274
330
278
384
492
634
778
946
1116
1422
1550
1680
2032
2386
2286
2220
2154
2088
2024
1664
1304
444
38
-367
-575
-785
-989
-949
-909
-777
-647
-317
-207
-97
0
96
210
70
92
112
88
62
68
62
56
46
34
28
22
6
-1
-9
-17
-25
-41
-47
-55
-61
-67
-79
-83
-89
-93
-97
-99
-103
-109
-109
-111
-111
-111
-107
-105
-103
-99
-95
-89
-85
-73
-65
-57
-47
-37
-15
-1
10
24
38
70
70
70
90
110
132
194
216
240
262
286
332
354
376
396
418
438
458
488
502
518
532
546
570
580
592
600
610
626
632
640
644
650
654
660
666
668
672
672
674
674
672
672
668
666
662
658
648
640
634
626
618
598
586
576
562
550
536
524
494
478
462
458
454
418
398
380
360
342
302
280
260
238
218
196
174
134
114
92
72
50
12
-3
-21
-35
-51
-65
-79
-103
-113
-125
-133
-143
-157
-163
-171
-175
-181
-191
-195
-199
-201
-205
-207
-211
-215
-217
-221
-223
-225
-227
-227
-229
-229
-231
-231
-231
-229
-227
-225
-221
-219
-213
-209
-205
-201
-197
-189
-185
-181
-177
-175
-173
-171
-171
-171
-171
-173
-175
-183
-187
-193
-199
-205
-211
-217
-231
-239
-247
-253
-261
-273
-279
-285
-289
-295
-303
-305
-309
-311
-315
-317
-321
-325
-327
-329
-331
-333
-339
-341
-343
-345
-349
-351
-355
-359
-361
-363
-363
-363
-363
-361
-359
-355
-353
-347
-343
-333
-325
-319
-311
-303
-287
-279
-273
-265
-259
-249
-245
-241
-239
-237
-237
-237
-239
-241
-245
-249
-255
-267
-273
-279
-285
-293
-299
-305
-317
-323
-329
-333
-339
-345
-349
-353
-355
-357
-359
-359
-361
-361
-361
-361
-361
-359
-357
-355
-353
-351
-347
-343
-341
-337
-335
-331
-329
-323
-319
-315
-311
-307
-301
-297
-293
-289
-287
-279
-275
-273
-269
-265
-261
-259
-253
-249
-247
-243
-241
-237
-233
-231
-229
-227
-223
-221
-217
-215
-215
-213
-213
-213
-213
-213
-213
-215
-219
-221
-225
-229
-233
-237
-243
-255
-261
-267
-273
-281
-293
-299
-307
-313
-321
-327
-333
-343
-347
-351
-355
-359
-363
-365
-367
-367
-369
-369
-369
-369
-369
-369
-367
-367
-365
-363
-361
-359
-357
-351
-347
-345
-339
-333
-329
-327
-307
-313
-321
-297
-275
-303
-257
-213
-247
-283
-195
-109
144
290
436
612
790
1118
1334
1552
1790
2028
2032
1726
1420
1262
1104
676
248
-563
-787
-1013
-1133
-1255
-1225
-1121
-1017
-883
-749
-629
-511
-409
-355
-303
-345
-387
-337
-337
-339
-331
-325
-315
-315
-315
-311
-307
-305
-305
-301
-299
-299
-297
-297
-295
-293
-291
-289
-289
-287
-285
-279
-275
-273
-269
-267
-259
-255
-251
-245
-241
-231
-225
-221
-213
-207
-199
-193
-177
-167
-159
-149
-139
-117
-103
-91
-77
-65
-51
-37
-9
4
18
34
48
76
90
102
114
126
138
150
170
180
190
198
208
226
234
242
250
260
278
286
296
306
316
326
336
358
368
380
390
400
422
430
440
448
456
462
470
480
482
484
484
486
480
476
472
464
458
440
428
418
404
392
378
364
336
320
306
290
276
244
230
216
200
186
172
158
132
118
104
90
76
50
36
22
8
-5
-31
-43
-57
-69
-83
-93
-105
-127
-137
-147
-153
-161
-175
-179
-183
-185
-187
-187
-189
-187
-185
-183
-179
-177
-167
-161
-157
-151
-145
-131
-123
-117
-109
-103
-95
-89
-73
-65
-59
-51
-45
-29
-21
-15
-7
-1
4
10
22
28
32
36
38
44
46
46
46
46
46
44
40
38
34
30
26
16
10
4
-1
-7
-19
-25
-33
-39
-45
-51
-59
-71
-77
-83
-89
-97
-109
-115
-121
-125
-131
-137
-143
-153
-157
-163
-167
-171
-179
-181
-185
-187
-189
-193
-193
-195
-193
-193
-191
-191
-187
-185
-183
-179
-175
-169
-165
-161
-157
-153
-149
-147
-139
-137
-135
-133
-131
-127
-125
-125
-125
-125
-125
-125
-127
-127
-129
-129
-131
-135
-135
-137
-137
-139
-143
-143
-145
-145
-147
-147
-149
-151
-151
-151
-151
-151
-149
-147
-147
-145
-145
-139
-135
-133
-129
-127
-123
-119
-109
-103
-99
-93
-87
-75
-69
-65
-59
-53
-47
-43
-35
-31
-27
-23
-21
-15
-13
-13
-13
-13
-13
-13
-15
-17
-19
-21
-25
-29
-31
-35
-37
-41
-45
-47
-49
-51
-53
-53
-55
-55
-53
-53
-51
-51
-47
-45
-43
-39
-37
-33
-31
-25
-23
-21
-17
-15
-11
-9
-7
-5
-5
-3
-3
-3
-3
-3
-5
-7
-11
-15
-19
-23
-27
-39
-45
-51
-59
-67
-75
-83
-101
-107
-115
-123
-131
-141
-147
-155
-157
-161
-157
-153
-151
-141
-131
-143
-155
-203
-165
-129
-73
-19
-51
40
132
256
382
538
696
1044
1212
1382
1652
1924
2286
2336
2386
2126
1866
1616
1250
886
472
60
-269
-599
-899
-965
-1031
-991
-951
-639
-621
-603
-565
-529
-485
-441
-361
-331
-301
-315
-329
-291
-281
-271
-259
-249
-241
-235
-223
-217
-211
-205
-201
-193
-189
-185
-181
-179
-173
-169
-167
-163
-159
-155
-153
-147
-143
-139
-135
-131
-123
-117
-113
-107
-103
-97
-91
-77
-69
-61
-51
-41
-21
-9
0
14
26
52
66
80
94
108
122
136
162
174
188
200
214
236
246
258
268
278
288
298
316
324
334
342
352
370
380
390
400
412
432
442
454
464
476
488
500
520
530
540
548
558
574
580
588
592
598
600
604
606
604
604
600
598
588
580
574
564
556
534
520
506
490
476
478
482
442
420
398
374
350
298
278
258
226
196
164
132
66
34
0
-31
-63
-99
-123
-149
-173
-197
-217
-239
-263
-277
-291
-303
-317
-337
-345
-353
-359
-365
-375
-377
-381
-381
-383
-381
-381
-379
-375
-373
-367
-363
-353
-345
-339
-331
-323
-313
-305
-287
-275
-265
-253
-243
-221
-209
-199
-187
-177
-157
-147
-139
-131
-123
-117
-111
-101
-97
-95
-93
-91
-89
-89
-91
-91
-93
-93
-95
-99
-99
-101
-103
-105
-109
-109
-111
-113
-115
-117
-119
-121
-121
-123
-125
-127
-131
-131
-133
-135
-137
-139
-139
-139
-139
-139
-139
-139
-135
-133
-131
-127
-125
-117
-113
-111
-107
-103
-95
-91
-89
-87
-85
-83
-83
-81
-81
-83
-85
-87
-93
-97
-101
-105
-109
-113
-119
-129
-133
-139
-143
-149
-159
-163
-167
-171
-175
-179
-183
-187
-189
-191
-193
-195
-197
-197
-197
-197
-197
-195
-193
-193
-189
-187
-183
-181
-175
-169
-165
-159
-155
-145
-139
-133
-127
-123
-117
-111
-101
-97
-93
-89
-87
-83
-81
-81
-83
-85
-89
-93
-97
-101
-107
-113
-119
-131
-137
-145
-151
-159
-171
-177
-183
-189
-195
-199
-205
-213
-215
-219
-221
-225
-229
-231
-233
-233
-235
-235
-235
-235
-233
-231
-229
-227
-219
-213
-207
-201
-195
-179
-169
-161
-151
-141
-131
-121
-101
-91
-81
-73
-65
-53
-49
-45
-43
-41
-43
-45
-49
-53
-59
-65
-73
-91
-99
-109
-119
-129
-149
-159
-169
-177
-187
-195
-203
-217
-223
-229
-233
-239
-249
-253
-257
-259
-263
-265
-269
-273
-273
-275
-273
-273
-269
-265
-261
-257
-253
-237
-223
-211
-197
-183
-193
-203
-153
-161
-169
-121
-75
50
50
50
146
240
364
490
792
958
1124
1270
1418
1562
1902
2244
2200
2158
2024
1968
1914
1578
1244
828
414
-431
-659
-889
-1009
-1129
-1093
-925
-757
-761
-767
-743
-721
-643
-603
-565
-535
-505
-507
-487
-469
-449
-431
-403
-391
-379
-367
-357
-345
-333
-311
-301
-291
-281
-271
-253
-243
-233
-223
-215
-207
-199
-183
-175
-169
-163
-157
-147
-143
-141
-137
-135
-131
-131
-131
-131
-131
-131
-133
-135
-135
-137
-137
-139
-141
-141
-141
-141
-143
-143
-143
-143
-143
-143
-143
-143
-141
-139
-139
-137
-135
-131
-129
-121
-115
-111
-103
-97
-81
-71
-61
-49
-39
-13
0
12
26
40
54
68
94
106
118
128
138
156
162
162
164
162
160
144
134
122
110
80
86
90
68
46
-1
-25
-51
-77
-103
-129
-155
-207
-231
-257
-281
-307
-355
-377
-401
-421
-443
-463
-483
-509
-523
-537
-549
-561
-579
-587
-595
-599
-603
-609
-609
-609
-607
-605
-601
-597
-587
-581
-575
-567
-561
-547
-539
-533
-525
-519
-513
-507
-497
-493
-489
-485
-483
-479
-477
-477
-475
-475
-475
-475
-475
-475
-475
-473
-473
-473
-471
-471
-469
-467
-465
-461
-459
-457
-455
-453
-451
-445
-441
-439
-437
-435
-429
-425
-423
-421
-419
-415
-413
-407
-403
-401
-397
-395
-391
-387
-385
-381
-379
-373
-371
-369
-367
-365
-363
-361
-357
-355
-355
-353
-353
-349
-349
-349
-347
-347
-345
-345
-345
-343
-343
-343
-345
-345
-345
-347
-349
-351
-355
-357
-361
-363
-367
-371
-375
-383
-385
-389
-393
-397
-401
-403
-405
-405
-405
-403
-403
-397
-393
-389
-381
-375
-359
-349
-339
-327
-315
-291
-277
-263
-249
-237
-223
-211
-185
-173
-163
-153
-143
-125
-119
-113
-109
-107
-105
-103
-103
-105
-109
-111
-115
-125
-129
-135
-141
-147
-157
-161
-167
-171
-175
-179
-183
-187
-189
-191
-191
-193
-193
-193
-193
-193
-193
-193
-193
-193
-193
-193
-193
-193
-193
-193
-193
-191
-191
-189
-189
-185
-181
-179
-175
-171
-163
-159
-155
-149
-145
-137
-133
-129
-125
-123
-121
-121
-121
-121
-123
-125
-129
-139
-143
-149
-155
-161
-167
-173
-187
-193
-199
-203
-209
-215
-217
-221
-221
-223
-223
-221
-219
-215
-213
-209
-207
-197
-193
-189
-183
-179
-169
-165
-161
-157
-153
-149
-147
-143
-141
-139
-137
-135
-133
-133
-133
-133
-133
-133
-133
-133
-133
-135
-135
-137
-141
-143
-145
-147
-149
-155
-159
-163
-165
-169
-171
-175
-181
-181
-183
-183
-183
-183
-179
-177
-173
-169
-141
-125
-111
-117
-125
-137
-149
-77
-77
-79
36
170
268
366
492
620
758
896
1214
1440
1668
1784
1900
2320
2144
1970
1928
1886
1588
1292
592
234
-123
-343
-563
-847
-885
-923
-885
-847
-627
-619
-613
-605
-599
-579
-561
-515
-507
-501
-493
-487
-473
-467
-461
-457
-453
-451
-449
-447
-447
-447
-447
-449
-451
-451
-453
-453
-453
-453
-451
-449
-447
-445
-441
-439
-431
-425
-421
-413
-407
-391
-381
-371
-359
-349
-335
-323
-297
-283
-269
-253
-239
-209
-195
-181
-165
-151
-125
-111
-99
-87
-75
-63
-53
-33
-23
-13
-3
4
24
34
44
56
66
78
90
118
134
148
164
180
180
200
222
244
266
314
336
360
382
406
426
448
488
502
516
530
544
570
580
590
598
608
614
622
632
634
638
640
642
644
642
642
640
638
634
630
622
616
610
602
594
576
566
556
544
532
506
490
476
460
446
428
412
402
382
362
340
320
280
260
240
224
210
196
182
158
148
138
130
122
108
104
98
96
92
88
88
86
88
88
90
92
96
100
104
108
112
122
128
134
140
146
156
170
176
184
190
196
210
214
220
224
230
240
242
246
248
250
250
252
252
250
250
248
246
242
238
236
232
228
224
220
212
208
204
200
196
188
184
180
176
174
168
164
162
160
158
156
156
154
154
154
154
156
160
162
164
166
170
172
176
182
186
190
192
196
202
204
206
206
208
208
208
208
206
204
200
198
190
184
178
172
166
146
140
134
126
118
110
94
88
80
74
68
54
50
44
40
34
30
26
18
16
14
12
10
6
6
6
6
6
8
12
14
18
20
24
28
38
44
50
56
62
76
82
88
96
102
108
114
126
130
134
138
142
148
150
154
150
146
144
142
140
136
132
130
126
124
120
118
114
110
108
104
102
100
98
98
96
98
98
100
104
106
110
114
120
126
140
148
154
162
172
192
202
214
224
234
244
256
274
282
292
298
306
316
318
322
322
324
322
322
314
306
300
292
284
264
252
240
226
214
188
174
160
148
134
122
108
84
74
62
52
42
24
18
10
4
-1
-5
-9
-15
-15
-17
-15
-15
-9
-3
0
6
10
30
40
48
62
76
72
66
112
114
114
192
198
256
314
388
462
564
668
930
1080
1230
1380
1532
1758
2044
2330
2396
2462
2094
1930
1766
1574
1382
1036
690
8
-267
-543
-713
-885
-983
-937
-891
-767
-645
-637
-631
-619
-597
-575
-547
-521
-473
-465
-459
-447
-435
-409
-397
-387
-377
-367
-357
-349
-333
-325
-319
-311
-305
-291
-285
-281
-275
-269
-265
-261
-253
-251
-249
-247
-245
-243
-243
-243
-243
-243
-243
-243
-245
-245
-245
-245
-247
-245
-245
-245
-243
-241
-237
-233
-229
-225
-221
-215
-211
-197
-189
-181
-171
-161
-139
-127
-115
-101
-87
-71
-57
-57
-37
-19
0
20
64
86
108
130
196
218
240
260
280
296
312
342
354
368
378
390
406
412
420
422
426
426
428
426
422
418
410
404
384
372
360
344
330
340
320
300
276
254
228
204
168
138
106
72
38
-29
-63
-97
-129
-163
-177
-193
-239
-259
-281
-287
-295
-321
-329
-339
-347
-355
-367
-371
-377
-379
-383
-383
-385
-387
-387
-389
-389
-391
-391
-391
-393
-393
-395
-395
-397
-399
-399
-401
-401
-403
-405
-405
-405
-405
-407
-407
-407
-407
-407
-407
-407
-407
-407
-407
-409
-409
-411
-413
-413
-415
-415
-417
-419
-421
-423
-423
-425
-425
-425
-425
-423
-423
-421
-421
-419
-417
-411
-407
-403
-399
-395
-387
-383
-379
-373
-369
-361
-357
-353
-349
-347
-345
-343
-339
-339
-339
-339
-339
-341
-343
-345
-349
-353
-357
-361
-369
-373
-379
-383
-389
-399
-403
-409
-413
-419
-425
-427
-431
-433
-437
-437
-439
-439
-439
-439
-437
-435
-429
-425
-423
-419
-415
-409
-403
-391
-385
-379
-371
-365
-349
-341
-333
-325
-317
-301
-293
-287
-279
-273
-265
-259
-249
-243
-239
-235
-231
-225
-223
-221
-219
-219
-217
-217
-217
-217
-217
-217
-217
-219
-219
-219
-221
-223
-223
-225
-229
-231
-233
-235
-237
-243
-245
-249
-251
-255
-261
-263
-267
-269
-271
-273
-275
-277
-277
-279
-277
-277
-271
-267
-265
-261
-257
-251
-247
-235
-227
-221
-215
-209
-197
-191
-185
-179
-175
-167
-163
-159
-157
-155
-153
-151
-149
-149
-149
-149
-149
-149
-149
-151
-151
-151
-149
-149
-147
-145
-145
-143
-141
-135
-131
-127
-123
-121
-111
-107
-103
-99
-95
-91
-87
-79
-75
-73
-71
-69
-67
-65
-65
-65
-65
-65
-65
-67
-69
-71
-71
-73
-77
-79
-81
-81
-83
-87
-89
-91
-93
-95
-97
-99
-105
-109
-113
-115
-119
-127
-129
-133
-137
-141
-143
-145
-147
-149
-151
-149
-147
-143
-135
-127
-139
-151
-129
-107
-147
-97
-49
-75
-101
74
196
320
474
628
976
1146
1318
1576
1834
2024
2214
2342
2092
1842
1732
1622
898
494
92
-227
-549
-689
-829
-955
-927
-901
-761
-621
-585
-549
-515
-471
-427
-345
-313
-283
-295
-309
-297
-285
-259
-249
-239
-233
-227
-221
-215
-211
-207
-205
-203
-201
-197
-195
-195
-195
-195
-193
-193
-193
-193
-193
-193
-193
-193
-193
-193
-193
-193
-191
-189
-189
-187
-185
-181
-177
-173
-169
-165
-159
-153
-139
-131
-123
-113
-105
-85
-73
-63
-51
-41
-17
-3
8
20
32
46
58
84
96
108
122
134
156
168
180
192
204
214
226
248
258
268
278
288
306
314
324
332
342
350
358
374
382
390
396
404
418
424
430
434
438
446
448
450
448
448
444
442
432
424
418
408
398
370
378
386
364
344
320
296
278
242
206
166
128
44
2
-39
-79
-121
-197
-231
-265
-293
-323
-323
-325
-369
-383
-397
-411
-425
-447
-455
-465
-475
-485
-493
-501
-515
-519
-525
-529
-535
-543
-545
-549
-551
-553
-555
-555
-555
-553
-553
-551
-549
-543
-537
-533
-527
-523
-511
-503
-497
-489
-481
-473
-467
-451
-443
-437
-431
-425
-411
-405
-401
-397
-393
-385
-381
-379
-377
-375
-373
-371
-369
-367
-367
-365
-365
-365
-365
-367
-367
-367
-367
-369
-371
-371
-373
-373
-375
-377
-377
-379
-379
-379
-377
-377
-373
-369
-367
-363
-359
-349
-341
-335
-327
-321
-305
-295
-287
-279
-271
-263
-255
-239
-233
-227
-221
-217
-211
-209
-207
-207
-207
-209
-211
-217
-221
-225
-229
-235
-249
-255
-261
-267
-275
-287
-293
-301
-305
-311
-317
-323
-331
-335
-339
-341
-345
-349
-351
-355
-355
-357
-359
-361
-363
-363
-365
-365
-365
-365
-365
-365
-363
-363
-361
-359
-357
-353
-351
-347
-343
-335
-329
-325
-319
-315
-305
-299
-295
-291
-287
-283
-279
-273
-271
-269
-267
-267
-267
-267
-269
-269
-271
-275
-277
-279
-281
-285
-287
-291
-297
-301
-305
-307
-311
-317
-319
-323
-325
-329
-331
-333
-335
-335
-335
-333
-333
-329
-325
-321
-317
-313
-307
-301
-287
-279
-271
-261
-253
-235
-225
-215
-205
-195
-173
-163
-153
-143
-133
-123
-115
-99
-91
-85
-79
-73
-65
-61
-59
-59
-59
-59
-61
-67
-71
-77
-83
-91
-107
-115
-125
-135
-145
-165
-173
-183
-193
-203
-211
-221
-237
-243
-251
-257
-263
-273
-277
-281
-285
-289
-291
-293
-295
-295
-295
-293
-293
-289
-285
-281
-275
-269
-257
-247
-239
-225
-211
-197
-183
-197
-173
-151
-155
-161
-75
-15
42
34
24
108
192
434
588
742
918
1096
1454
1732
2012
2196
2380
2534
2468
2404
2188
1972
1630
1288
466
52
-361
-587
-815
-1053
-1031
-1011
-837
-665
-669
-673
-631
-593
-557
-521
-487
-435
-435
-435
-413
-391
-369
-349
-309
-291
-273
-251
-229
-205
-183
-163
-147
-133
-107
-95
-83
-71
-61
-51
-43
-29
-23
-17
-11
-7
-1
0
2
4
4
4
4
4
4
4
4
2
2
4
4
4
4
6
8
10
12
14
18
20
26
32
36
42
46
60
68
76
86
96
108
120
148
162
178
174
170
210
232
256
280
304
356
382
408
432
458
482
508
552
560
570
584
598
618
624
632
636
642
642
644
642
638
634
626
620
602
590
580
566
554
524
524
526
508
490
470
450
408
384
360
336
312
258
230
204
178
122
90
42
18
-7
-31
-55
-97
-117
-137
-145
-153
-165
-179
-201
-209
-219
-227
-235
-245
-249
-253
-255
-259
-265
-265
-267
-267
-269
-269
-271
-273
-273
-273
-273
-275
-277
-277
-279
-281
-283
-283
-285
-291
-293
-295
-299
-303
-309
-311
-315
-319
-323
-329
-331
-335
-337
-341
-343
-345
-347
-347
-347
-345
-345
-339
-335
-331
-327
-323
-317
-311
-297
-289
-283
-275
-269
-255
-247
-241
-235
-231
-221
-217
-213
-211
-209
-209
-209
-209
-211
-213
-215
-219
-227
-231
-237
-241
-247
-251
-257
-267
-273
-279
-283
-289
-299
-303
-309
-313
-317
-327
-331
-335
-339
-343
-345
-349
-355
-357
-359
-361
-363
-365
-365
-365
-363
-363
-359
-357
-351
-347
-343
-337
-331
-319
-311
-305
-297
-289
-281
-275
-259
-253
-247
-241
-235
-227
-225
-223
-221
-219
-221
-223
-225
-227
-231
-235
-239
-247
-251
-257
-261
-267
-275
-279
-283
-285
-289
-291
-293
-297
-299
-301
-301
-303
-305
-305
-307
-309
-311
-313
-313
-315
-317
-319
-319
-321
-321
-321
-321
-319
-319
-315
-311
-309
-305
-301
-295
-291
-277
-269
-263
-255
-249
-233
-225
-217
-209
-203
-191
-185
-181
-177
-173
-171
-169
-167
-167
-167
-167
-167
-171
-171
-173
-175
-177
-177
-179
-179
-179
-179
-177
-177
-175
-173
-171
-169
-169
-165
-163
-161
-159
-159
-159
-159
-159
-159
-161
-163
-165
-169
-171
-173
-175
-179
-181
-185
-191
-193
-197
-199
-201
-207
-209
-211
-213
-215
-217
-219
-223
-223
-225
-225
-227
-225
-223
-223
-219
-215
-211
-203
-197
-185
-173
-161
-149
-169
-145
-123
-137
-153
-59
4
68
60
52
160
268
548
710
872
1040
1210
1468
1764
2060
2168
2278
1938
1896
1856
1564
1274
840
406
-459
-795
-1131
-1241
-1353
-1367
-1247
-1127
-949
-771
-605
-441
-377
-331
-287
-303
-319
-289
-287
-287
-283
-281
-271
-269
-269
-267
-265
-263
-263
-261
-259
-259
-257
-257
-253
-251
-249
-245
-243
-239
-235
-225
-219
-213
-207
-201
-187
-179
-171
-163
-157
-143
-135
-129
-121
-115
-107
-101
-85
-77
-71
-63
-55
-37
-27
-19
-7
2
14
26
52
66
78
92
106
136
150
164
178
192
204
218
244
256
268
278
290
310
320
330
338
346
364
372
380
388
396
404
412
430
438
446
454
464
480
488
496
502
510
516
522
532
534
538
538
540
540
536
532
526
522
504
494
484
470
458
442
428
394
392
392
370
350
306
282
260
236
212
188
166
120
98
76
54
32
-9
-29
-49
-67
-87
-123
-139
-155
-169
-183
-195
-209
-231
-241
-251
-259
-267
-281
-285
-291
-295
-299
-301
-303
-307
-307
-307
-307
-307
-305
-303
-301
-299
-297
-291
-287
-285
-281
-279
-275
-271
-263
-259
-255
-249
-245
-237
-231
-227
-221
-215
-209
-205
-195
-189
-185
-179
-175
-165
-161
-157
-153
-151
-147
-145
-141
-139
-139
-139
-139
-141
-141
-143
-145
-147
-153
-155
-159
-163
-169
-173
-177
-187
-193
-199
-203
-209
-221
-225
-231
-237
-243
-247
-251
-259
-261
-265
-267
-269
-271
-269
-269
-267
-265
-259
-255
-253
-247
-243
-237
-233
-223
-217
-213
-209
-205
-197
-193
-191
-189
-189
-187
-187
-189
-191
-193
-195
-197
-203
-205
-209
-213
-217
-221
-223
-225
-227
-229
-229
-231
-229
-229
-229
-227
-225
-221
-219
-217
-213
-211
-209
-207
-203
-201
-199
-197
-195
-191
-189
-187
-185
-183
-177
-175
-173
-169
-167
-163
-159
-153
-149
-145
-141
-139
-133
-129
-127
-125
-125
-125
-125
-127
-129
-133
-135
-139
-149
-153
-159
-165
-171
-177
-183
-193
-197
-203
-207
-211
-217
-219
-221
-221
-221
-221
-219
-217
-213
-211
-207
-205
-197
-193
-189
-183
-179
-169
-163
-159
-153
-149
-143
-139
-127
-121
-117
-111
-105
-95
-89
-85
-79
-75
-69
-65
-63
-61
-61
-61
-63
-69
-73
-77
-83
-89
-105
-113
-123
-133
-145
-155
-167
-191
-203
-215
-227
-239
-263
-273
-285
-295
-307
-325
-331
-339
-345
-351
-353
-357
-361
-361
-363
-359
-357
-341
-333
-325
-333
-343
-325
-307
-333
-293
-253
-207
-163
-177
-81
12
148
284
362
684
1008
1188
1368
1694
2022
2350
2356
2362
2184
2008
1408
970
534
122
-289
-527
-765
-1051
-1071
-1093
-1041
-991
-819
-813
-807
-799
-793
-773
-753
-709
-689
-671
-667
-663
-643
-633
-623
-615
-607
-593
-587
-583
-577
-571
-567
-563
-553
-547
-543
-537
-531
-521
-515
-509
-501
-495
-487
-481
-465
-457
-449
-441
-433
-419
-411
-403
-395
-389
-375
-369
-365
-359
-353
-349
-345
-337
-333
-331
-329
-327
-321
-319
-317
-315
-313
-309
-307
-301
-295
-291
-285
-281
-269
-261
-253
-243
-235
-215
-203
-191
-177
-165
-149
-133
-137
-119
-101
-81
-63
-21
2
24
50
74
100
126
164
194
226
258
292
360
392
426
458
490
518
540
564
576
588
602
616
638
644
652
656
662
666
664
662
658
654
646
640
620
608
598
584
570
542
526
510
494
478
462
446
414
398
382
368
354
326
314
302
292
282
264
256
248
242
236
232
228
222
220
220
220
220
222
224
226
230
234
238
242
250
254
260
264
270
280
282
286
288
292
296
296
298
298
298
296
294
290
286
284
278
274
266
260
256
250
244
238
232
220
212
206
198
192
176
168
162
154
146
130
122
114
106
98
92
84
72
68
62
60
56
52
52
52
54
56
58
60
68
72
76
82
86
92
96
98
100
100
100
98
94
92
88
82
76
62
56
48
40
30
12
4
-3
-11
-21
-29
-37
-53
-59
-67
-73
-81
-93
-99
-105
-111
-117
-121
-127
-139
-143
-149
-153
-157
-165
-169
-173
-175
-177
-181
-181
-183
-183
-183
-181
-181
-179
-177
-175
-171
-169
-161
-157
-155
-151
-147
-143
-139
-131
-127
-123
-119
-117
-109
-105
-103
-99
-97
-91
-89
-87
-85
-83
-81
-79
-75
-73
-71
-69
-69
-67
-65
-65
-63
-63
-63
-63
-61
-61
-61
-61
-61
-59
-59
-59
-57
-57
-57
-55
-55
-53
-51
-49
-47
-43
-39
-37
-33
-29
-21
-17
-13
-7
-3
0
4
14
18
22
26
30
34
36
38
40
40
38
36
34
30
26
22
16
4
-1
-9
-17
-25
-41
-49
-59
-67
-75
-83
-91
-107
-113
-121
-127
-133
-145
-149
-155
-159
-163
-167
-171
-177
-179
-181
-181
-181
-183
-181
-181
-181
-181
-171
-157
-143
-147
-153
-171
-189
-125
-151
-179
-107
-37
150
258
368
504
640
798
956
1296
1446
1596
1846
2096
2476
2360
2246
2126
2008
1778
1342
908
470
34
-295
-625
-887
-939
-991
-951
-911
-639
-619
-601
-567
-533
-491
-451
-379
-353
-327
-343
-361
-331
-317
-305
-295
-285
-269
-261
-255
-245
-237
-227
-219
-203
-193
-183
-173
-165
-147
-137
-127
-117
-109
-99
-91
-75
-67
-61
-55
-51
-43
-39
-37
-35
-33
-33
-33
-33
-33
-35
-35
-37
-39
-39
-41
-41
-41
-37
-35
-33
-29
-25
-19
-13
0
10
18
30
40
64
78
92
108
122
124
124
158
176
196
216
238
282
304
328
352
376
424
448
474
498
522
546
570
600
614
628
640
652
668
672
678
678
680
676
672
660
648
638
622
608
626
602
580
552
526
496
460
426
388
350
310
270
188
148
108
70
32
-39
-71
-105
-133
-163
-169
-177
-223
-243
-265
-283
-303
-329
-341
-353
-365
-379
-399
-407
-415
-421
-429
-435
-441
-449
-451
-453
-455
-457
-459
-459
-459
-457
-457
-457
-457
-455
-453
-453
-451
-451
-451
-451
-451
-451
-451
-453
-453
-455
-457
-459
-459
-461
-465
-467
-469
-471
-473
-477
-477
-479
-481
-483
-485
-487
-491
-493
-495
-495
-497
-501
-501
-503
-503
-503
-501
-501
-499
-495
-493
-489
-487
-479
-473
-469
-463
-459
-449
-443
-439
-435
-431
-427
-423
-419
-417
-417
-417
-417
-419
-421
-425
-429
-433
-437
-441
-451
-457
-463
-467
-473
-483
-487
-493
-497
-501
-507
-509
-513
-515
-517
-517
-519
-521
-521
-521
-521
-521
-519
-517
-515
-513
-511
-509
-507
-503
-499
-497
-493
-491
-485
-481
-477
-473
-469
-461
-457
-453
-449
-445
-441
-437
-429
-425
-421
-417
-413
-407
-403
-401
-399
-397
-395
-393
-391
-391
-391
-391
-393
-395
-397
-399
-401
-403
-409
-413
-417
-421
-425
-429
-433
-441
-443
-447
-451
-455
-461
-461
-463
-463
-465
-465
-465
-463
-459
-457
-451
-447
-435
-427
-421
-411
-403
-391
-381
-359
-345
-333
-319
-307
-281
-269
-257
-245
-233
-211
-201
-193
-185
-177
-171
-167
-163
-163
-163
-165
-167
-177
-183
-191
-199
-207
-217
-227
-247
-257
-269
-279
-289
-309
-317
-325
-331
-339
-351
-353
-357
-359
-361
-361
-361
-357
-353
-349
-343
-337
-325
-315
-307
-297
-289
-275
-263
-265
-241
-219
-225
-231
-155
-171
-187
-117
-47
132
248
366
510
654
818
982
1316
1528
1742
1948
2154
2380
2198
2018
1972
1926
1622
1318
478
136
-207
-461
-715
-961
-965
-969
-787
-607
-627
-613
-601
-563
-527
-493
-461
-411
-415
-419
-403
-387
-355
-341
-327
-315
-303
-291
-279
-253
-239
-227
-213
-201
-177
-165
-153
-141
-129
-117
-107
-87
-77
-69
-61
-55
-43
-37
-33
-29
-25
-21
-19
-19
-19
-19
-19
-21
-25
-25
-27
-27
-29
-31
-29
-29
-27
-25
-23
-21
-11
-5
0
8
16
34
44
54
66
76
100
114
126
140
166
180
208
222
238
254
270
300
316
334
338
342
360
378
416
442
468
484
500
530
542
554
564
574
586
588
592
590
590
586
582
564
550
538
550
564
518
490
464
448
432
394
358
280
240
202
164
126
52
16
-19
-51
-83
-141
-151
-163
-187
-211
-231
-253
-291
-303
-315
-327
-341
-365
-373
-383
-391
-399
-403
-409
-417
-419
-421
-421
-423
-423
-421
-419
-417
-417
-415
-413
-409
-407
-405
-403
-403
-403
-403
-405
-407
-409
-413
-415
-419
-423
-427
-431
-435
-445
-449
-453
-455
-459
-465
-467
-471
-473
-475
-475
-477
-479
-479
-481
-481
-481
-481
-481
-481
-481
-481
-481
-481
-481
-481
-481
-479
-479
-475
-471
-469
-465
-463
-453
-447
-443
-437
-431
-423
-417
-401
-393
-385
-377
-369
-353
-345
-339
-333
-327
-317
-313
-309
-305
-303
-301
-301
-303
-305
-307
-311
-315
-325
-331
-339
-347
-355
-363
-371
-391
-401
-411
-421
-431
-451
-461
-471
-479
-489
-505
-511
-517
-523
-529
-533
-537
-541
-541
-543
-541
-541
-537
-533
-531
-525
-521
-515
-511
-499
-493
-487
-481
-475
-461
-455
-449
-443
-439
-433
-429
-421
-417
-413
-411
-409
-405
-403
-401
-399
-399
-397
-397
-397
-395
-395
-395
-395
-393
-391
-391
-389
-389
-385
-383
-383
-381
-379
-377
-377
-373
-371
-369
-367
-365
-361
-357
-355
-351
-347
-337
-331
-327
-319
-313
-305
-299
-281
-273
-265
-255
-247
-229
-219
-211
-203
-195
-189
-183
-173
-169
-165
-163
-161
-161
-163
-165
-169
-173
-183
-189
-195
-201
-209
-217
-225
-241
-249
-259
-267
-275
-291
-297
-305
-309
-315
-319
-323
-327
-327
-327
-327
-327
-319
-309
-299
-289
-281
-299
-279
-259
-273
-287
-243
-201
-73
-97
-123
-23
76
372
554
736
928
1120
1420
1720
2204
2316
2430
2350
2272
1768
1414
1062
696
332
38
-255
-635
-721
-809
-817
-827
-595
-603
-613
-593
-575
-553
-533
-515
-493
-473
-467
-461
-439
-429
-421
-411
-403
-387
-379
-373
-367
-361
-355
-349
-335
-327
-321
-313
-307
-291
-283
-275
-265
-257
-239
-231
-223
-213
-205
-197
-189
-173
-165
-159
-153
-147
-139
-135
-131
-127
-125
-123
-121
-119
-119
-119
-119
-119
-121
-121
-123
-125
-127
-129
-131
-133
-133
-135
-135
-135
-133
-131
-129
-125
-123
-111
-103
-97
-87
-79
-67
-55
-23
-29
-37
-15
4
56
66
74
110
146
224
266
308
352
396
440
486
576
618
662
704
746
822
856
890
892
896
904
912
938
946
954
956
958
954
948
944
936
928
914
902
872
876
880
856
832
782
756
732
706
680
630
606
582
560
540
524
510
482
468
456
446
438
424
420
416
414
414
414
416
424
430
436
444
454
474
486
498
510
522
550
564
578
590
604
616
630
656
666
678
688
698
714
722
730
736
742
746
752
758
762
766
768
770
774
776
778
778
780
782
782
784
784
784
782
782
780
778
776
772
770
762
756
752
746
742
736
732
722
716
712
706
702
696
692
690
688
686
684
684
684
684
684
684
684
686
684
684
682
680
674
668
664
656
650
642
634
614
602
592
578
566
540
526
512
496
482
468
454
426
412
398
384
372
346
334
322
310
300
280
270
262
254
246
238
232
222
218
214
210
208
206
206
208
208
210
212
216
222
224
228
230
234
240
240
242
242
242
238
234
232
226
222
216
210
194
184
174
164
154
136
126
114
104
94
84
74
58
50
42
36
30
20
16
12
10
6
4
4
2
4
4
6
8
14
20
24
30
34
48
56
64
74
82
94
104
126
138
150
160
172
196
208
220
230
240
256
262
270
272
276
278
280
276
270
266
258
252
232
220
210
196
182
166
122
106
90
80
70
34
16
-1
-23
-45
-61
-77
-107
-121
-137
-149
-161
-183
-191
-199
-207
-217
-227
-225
-225
-223
-223
-213
-205
-229
-251
-273
-239
-205
-97
-127
-157
-63
30
162
296
630
794
958
1106
1254
1940
1956
1974
1956
1940
1942
1606
1270
838
408
-41
-493
-1017
-1165
-1315
-1317
-1321
-885
-883
-881
-779
-679
-645
-611
-515
-483
-453
-421
-389
-325
-313
-303
-279
-257
-219
-209
-201
-189
-177
-167
-159
-143
-137
-131
-125
-121
-115
-113
-111
-109
-107
-107
-107
-105
-105
-107
-107
-107
-111
-113
-115
-117
-119
-125
-129
-133
-137
-143
-147
-153
-165
-171
-179
-187
-195
-211
-217
-225
-233
-241
-247
-255
-267
-271
-277
-279
-283
-287
-285
-285
-283
-281
-275
-271
-255
-245
-237
-225
-213
-185
-169
-153
-153
-153
-113
-91
-71
-47
-25
-1
22
72
98
124
150
176
230
256
282
298
316
330
346
370
376
384
388
394
390
382
376
364
352
388
364
340
334
328
286
246
158
114
68
24
-21
-109
-149
-191
-227
-263
-293
-325
-333
-355
-379
-393
-409
-435
-445
-455
-461
-469
-477
-479
-481
-477
-475
-471
-467
-443
-453
-465
-441
-419
-431
-389
-347
-349
-353
-277
-203
-21
78
178
278
380
570
650
730
834
938
1002
996
990
1028
1068
1100
1132
1176
1184
1194
1210
1228
1264
1276
1290
1302
1314
1324
1334
1354
1364
1374
1382
1390
1406
1414
1422
1428
1436
1442
1450
1466
1472
1480
1488
1496
1514
1522
1532
1542
1554
1576
1588
1600
1612
1626
1640
1656
1686
1686
1688
1706
1724
1764
1786
1810
1834
1860
1872
1886
1948
1982
2016
2054
2092
2168
2208
2248
2288
2328
2404
2440
2478
2512
2546
2576
2606
2624
2646
2670
2678
2686
2710
2718
2726
2730
2736
2738
2742
2740
2738
2736
2730
2726
2712
2702
2694
2684
2676
2654
2642
2630
2618
2606
2592
2580
2554
2540
2526
2510
2496
2464
2462
2462
2444
2428
2410
2392
2352
2330
2310
2286
2264
2214
2188
2162
2136
2110
2056
2030
2004
1976
1948
1920
1892
1834
1804
1776
1746
1718
1662
1634
1606
1578
1550
1522
1494
1440
1412
1384
1354
1326
1264
1232
1200
1166
1132
1098
1064
996
980
964
940
918
878
866
856
842
828
802
790
778
766
754
742
730
708
694
680
664
650
662
642
622
598
576
570
566
492
452
412
370
328
244
202
160
122
82
10
-21
-55
-55
-57
-79
-101
-137
-153
-169
-183
-197
-223
-237
-251
-263
-277
-287
-299
-321
-331
-341
-347
-355
-373
-375
-379
-383
-387
-379
-397
-417
-399
-381
-409
-439
-341
-361
-383
-293
-203
38
188
338
508
678
828
980
1224
1548
1872
1824
1776
1634
1570
1508
1144
780
-101
-521
-941
-1153
-1365
-1463
-1563
-1483
-1317
-1151
-1149
-1149
-1099
-1063
-1027
-995
-965
-977
-991
-975
-963
-953
-943
-935
-921
-917
-913
-905
-899
-893
-887
-875
-867
-861
-853
-847
-833
-823
-815
-807
-799
-781
-773
-765
-757
-751
-745
-739
-729
-725
-723
-721
-721
-723
-727
-731
-735
-741
-747
-755
-771
-779
-789
-797
-807
-825
-833
-843
-851
-859
-871
-875
-879
-881
-885
-885
-885
-883
-877
-873
-865
-859
-841
-829
-817
-803
-791
-775
-759
-765
-743
-723
-699
-677
-625
-611
-597
-565
-533
-465
-427
-391
-351
-311
-271
-231
-149
-109
-71
-33
2
16
24
32
46
58
68
76
82
82
80
78
74
60
50
40
28
14
-13
-29
-45
-61
-77
-93
-111
-145
-159
-175
-189
-205
-231
-243
-255
-265
-275
-281
-289
-299
-301
-305
-305
-307
-301
-295
-291
-281
-273
-261
-251
-225
-209
-193
-195
-199
-155
-131
-109
-85
-61
-13
10
34
58
80
102
122
148
160
174
184
196
214
220
226
230
234
234
236
236
234
232
228
226
216
212
208
202
196
186
180
176
170
166
162
158
150
148
144
140
136
132
130
126
124
122
120
118
116
116
114
114
112
110
110
110
110
110
110
110
108
108
106
106
104
98
96
92
88
84
74
70
64
58
50
44
36
20
12
4
-3
-11
-25
-33
-41
-47
-53
-67
-71
-77
-81
-87
-91
-95
-103
-105
-109
-111
-113
-117
-117
-119
-119
-121
-121
-123
-123
-121
-121
-121
-121
-117
-115
-115
-113
-111
-109
-109
-107
-105
-105
-103
-103
-105
-107
-109
-111
-115
-125
-131
-137
-145
-153
-161
-171
-193
-205
-217
-229
-243
-269
-283
-299
-313
-327
-341
-357
-385
-399
-413
-425
-439
-463
-473
-485
-495
-505
-521
-527
-535
-539
-543
-545
-549
-551
-549
-549
-545
-543
-533
-525
-519
-511
-503
-493
-485
-463
-451
-441
-431
-421
-399
-389
-381
-373
-365
-353
-349
-345
-343
-341
-341
-343
-349
-353
-359
-365
-373
-389
-397
-407
-417
-427
-435
-445
-463
-471
-481
-487
-495
-507
-513
-519
-523
-527
-535
-537
-541
-543
-547
-549
-551
-553
-553
-553
-551
-551
-547
-545
-543
-537
-533
-523
-515
-497
-481
-465
-469
-475
-505
-467
-431
-377
-323
-329
-335
-169
-53
62
212
362
712
892
1072
1314
1558
2018
2126
2234
2164
2096
1852
1608
876
456
36
-271
-579
-1021
-1119
-1219
-1223
-1227
-1087
-949
-957
-933
-911
-875
-839
-767
-735
-703
-703
-705
-667
-653
-641
-627
-615
-603
-593
-575
-565
-557
-549
-541
-527
-521
-515
-507
-501
-495
-489
-477
-471
-465
-459
-455
-443
-437
-433
-429
-425
-417
-413
-409
-405
-403
-399
-397
-393
-391
-389
-387
-385
-381
-379
-377
-373
-371
-367
-363
-353
-347
-341
-333
-327
-309
-297
-287
-275
-265
-237
-221
-207
-191
-175
-173
-173
-133
-113
-93
-71
-51
-7
14
36
58
80
102
124
166
186
208
228
248
278
292
306
316
328
338
348
362
366
370
370
372
368
364
360
352
346
326
312
300
286
272
274
276
238
216
194
172
150
102
78
52
26
0
-25
-51
-103
-129
-155
-179
-203
-249
-263
-277
-291
-307
-331
-339
-349
-355
-363
-367
-371
-375
-373
-373
-371
-369
-359
-353
-349
-343
-337
-329
-323
-309
-301
-295
-289
-283
-271
-265
-259
-253
-249
-241
-237
-233
-229
-227
-225
-223
-221
-219
-219
-219
-219
-221
-223
-225
-227
-229
-231
-235
-239
-241
-245
-247
-249
-251
-251
-251
-249
-249
-243
-237
-233
-225
-219
-211
-203
-185
-173
-163
-151
-141
-117
-105
-95
-83
-73
-63
-55
-39
-33
-27
-23
-19
-15
-15
-15
-15
-17
-19
-23
-29
-33
-37
-41
-47
-55
-59
-63
-67
-71
-77
-79
-83
-83
-85
-87
-89
-91
-91
-93
-93
-95
-97
-99
-101
-101
-103
-103
-105
-105
-105
-107
-105
-105
-103
-101
-99
-95
-93
-85
-79
-75
-69
-65
-59
-53
-43
-37
-31
-27
-23
-15
-13
-11
-9
-9
-9
-9
-15
-17
-21
-25
-31
-45
-51
-59
-67
-75
-91
-99
-107
-113
-121
-127
-135
-147
-151
-157
-161
-165
-171
-171
-173
-173
-175
-173
-173
-169
-165
-163
-159
-155
-147
-141
-135
-127
-121
-105
-97
-89
-79
-69
-57
-47
-25
-13
-1
12
24
50
64
76
90
102
116
128
162
172
182
192
208
214
220
224
228
230
232
234
232
230
226
222
210
202
196
188
180
162
154
146
138
128
120
112
96
90
84
80
74
66
64
62
62
60
62
64
70
76
80
88
96
112
124
136
148
158
190
188
186
210
236
240
244
322
318
316
376
436
594
696
798
922
1048
1182
1318
1616
1732
1848
2032
2216
2572
2442
2312
2176
2042
1744
1356
970
544
120
-129
-379
-663
-671
-679
-607
-535
-431
-433
-437
-439
-443
-429
-417
-387
-377
-369
-363
-359
-347
-341
-335
-329
-323
-313
-307
-301
-295
-289
-281
-275
-261
-253
-247
-239
-231
-217
-209
-203
-197
-191
-187
-183
-175
-171
-169
-167
-167
-165
-165
-165
-165
-167
-167
-169
-173
-173
-175
-175
-175
-173
-171
-171
-169
-167
-159
-153
-149
-143
-137
-129
-123
-105
-95
-85
-75
-65
-41
-27
-15
-1
12
28
42
74
90
106
110
114
150
168
188
208
228
270
292
314
334
356
374
392
420
432
446
456
466
480
484
488
488
490
486
484
474
464
456
444
434
404
388
372
374
376
332
308
284
258
234
206
178
134
102
68
36
2
-61
-81
-101
-125
-149
-171
-193
-205
-217
-231
-239
-249
-263
-267
-271
-273
-275
-277
-275
-275
-273
-273
-271
-269
-267
-265
-263
-263
-263
-261
-261
-263
-263
-263
-263
-265
-267
-267
-267
-267
-269
-267
-267
-267
-265
-263
-261
-261
-255
-251
-249
-245
-243
-237
-233
-231
-227
-223
-215
-211
-207
-203
-199
-193
-189
-179
-173
-167
-161
-155
-143
-135
-129
-123
-117
-109
-103
-89
-83
-77
-71
-65
-55
-51
-49
-45
-43
-39
-39
-39
-39
-41
-43
-47
-53
-57
-63
-69
-77
-91
-99
-109
-117
-127
-137
-149
-171
-181
-193
-205
-217
-241
-253
-265
-277
-289
-311
-321
-333
-343
-353
-361
-371
-387
-393
-399
-405
-411
-419
-421
-423
-423
-425
-425
-425
-421
-417
-415
-411
-407
-399
-393
-389
-385
-381
-373
-369
-365
-363
-361
-359
-359
-359
-359
-361
-363
-367
-373
-377
-383
-387
-393
-397
-403
-413
-417
-423
-427
-433
-441
-443
-447
-449
-453
-455
-457
-459
-459
-459
-457
-457
-453
-451
-449
-445
-441
-431
-425
-419
-411
-405
-397
-389
-371
-361
-353
-343
-333
-311
-301
-291
-279
-269
-259
-251
-231
-221
-213
-203
-195
-179
-171
-165
-157
-151
-139
-131
-125
-119
-113
-107
-101
-91
-85
-79
-73
-69
-61
-57
-53
-49
-47
-43
-41
-39
-37
-37
-37
-37
-37
-37
-39
-39
-41
-41
-41
-43
-43
-43
-41
-41
-39
-35
-33
-29
-27
-21
-15
-11
-7
-3
2
8
18
26
32
40
46
64
74
84
92
100
126
120
114
132
150
166
182
236
226
216
262
308
434
438
444
542
640
766
892
1176
1340
1504
1636
1770
2188
2402
2616
2502
2390
2256
2124
1904
1440
976
504
34
-533
-683
-835
-813
-793
-547
-455
-365
-333
-301
-215
-129
-83
-39
2
34
64
112
124
134
146
158
172
186
208
216
224
230
236
244
246
248
248
248
244
242
240
236
234
230
226
216
212
208
202
198
190
186
184
180
178
174
172
170
170
170
172
174
180
184
190
196
202
220
230
240
252
264
278
292
322
338
354
360
366
406
426
446
464
484
504
524
560
574
590
604
618
644
656
668
678
688
706
714
722
728
736
742
748
760
764
768
770
774
778
778
780
780
780
778
776
768
762
756
746
738
716
702
688
672
658
662
668
624
600
576
550
526
472
444
418
390
364
314
290
268
246
224
204
186
136
120
104
88
58
34
10
-5
-21
-37
-53
-87
-103
-119
-133
-149
-179
-193
-207
-221
-235
-259
-269
-279
-289
-299
-307
-315
-327
-331
-337
-341
-345
-351
-351
-353
-353
-355
-355
-355
-353
-351
-349
-347
-345
-339
-335
-331
-327
-323
-313
-307
-303
-297
-291
-285
-281
-269
-263
-259
-255
-251
-245
-243
-241
-239
-239
-239
-241
-247
-251
-255
-261
-267
-281
-289
-297
-305
-315
-335
-345
-355
-365
-375
-385
-395
-415
-423
-433
-441
-451
-469
-477
-485
-491
-499
-507
-515
-527
-533
-539
-543
-549
-559
-561
-565
-567
-571
-571
-573
-573
-571
-569
-565
-563
-555
-549
-543
-535
-529
-515
-507
-499
-491
-483
-475
-469
-457
-451
-445
-441
-437
-433
-431
-431
-431
-433
-435
-437
-443
-447
-451
-457
-463
-473
-479
-485
-489
-495
-505
-509
-513
-515
-519
-519
-521
-523
-521
-521
-519
-517
-509
-503
-499
-493
-487
-479
-471
-453
-443
-433
-421
-411
-387
-373
-361
-347
-333
-305
-289
-275
-259
-245
-229
-215
-185
-169
-155
-141
-129
-103
-91
-81
-71
-61
-51
-43
-29
-23
-19
-15
-11
-5
-3
-1
0
0
0
2
2
2
2
4
4
4
6
6
8
8
8
10
10
10
10
10
8
8
8
6
4
2
-1
-3
-5
-7
-9
-9
-11
-15
-15
-17
-17
-17
-17
-17
-17
-15
-15
-15
-15
-15
-15
-15
-15
-17
-21
-23
-27
-29
-33
-39
-43
-47
-49
-53
-55
-57
-63
-63
-63
-57
-53
-43
-29
-17
-27
-37
-83
-45
-7
50
108
88
68
262
396
532
696
862
1168
1302
1436
1782
2128
2096
2066
1964
1916
1868
1518
1168
320
-21
-365
-599
-835
-993
-945
-899
-739
-581
-577
-575
-513
-473
-435
-401
-369
-401
-395
-389
-379
-369
-361
-353
-343
-339
-337
-333
-329
-323
-319
-317
-313
-311
-307
-305
-303
-301
-301
-299
-297
-295
-293
-293
-291
-291
-289
-287
-287
-285
-283
-279
-275
-265
-257
-251
-241
-233
-209
-195
-181
-165
-151
-153
-155
-111
-87
-63
-37
-13
34
56
78
92
104
132
144
154
164
174
180
188
200
204
208
210
214
218
220
222
224
226
228
232
238
242
246
250
256
266
272
278
284
292
304
310
318
324
332
336
342
354
358
362
364
368
372
372
372
370
368
364
362
350
342
336
326
316
294
280
266
250
236
238
216
196
174
154
132
110
64
42
18
-3
-27
-69
-89
-109
-125
-141
-155
-171
-199
-211
-223
-235
-247
-267
-275
-283
-291
-299
-313
-319
-325
-329
-335
-339
-343
-349
-349
-351
-351
-351
-347
-343
-341
-335
-329
-321
-313
-295
-283
-271
-259
-247
-219
-205
-191
-177
-165
-151
-139
-115
-105
-95
-85
-77
-65
-61
-57
-53
-51
-49
-49
-51
-51
-53
-55
-57
-61
-63
-67
-69
-71
-75
-77
-79
-81
-83
-83
-85
-89
-91
-93
-93
-95
-99
-101
-103
-105
-107
-111
-111
-113
-113
-115
-115
-115
-113
-109
-107
-103
-101
-93
-87
-83
-77
-71
-63
-57
-45
-37
-31
-25
-19
-7
-3
0
4
8
12
14
14
14
14
14
14
10
8
6
4
0
-7
-9
-13
-17
-21
-25
-29
-37
-41
-45
-49
-53
-61
-63
-67
-71
-75
-81
-83
-85
-87
-89
-89
-91
-91
-89
-89
-87
-85
-79
-75
-71
-65
-59
-53
-47
-35
-27
-19
-11
-5
8
14
20
26
32
38
42
50
52
54
56
58
60
60
60
60
58
54
52
48
46
44
42
38
32
30
28
26
24
22
22
20
20
20
20
20
24
26
28
30
32
38
42
46
50
52
60
64
66
68
70
72
74
76
76
76
76
74
70
68
64
60
54
48
42
28
22
14
6
-3
-21
-31
-41
-51
-63
-83
-93
-103
-113
-123
-131
-139
-153
-159
-165
-167
-171
-175
-173
-173
-165
-159
-151
-143
-169
-151
-133
-145
-159
-79
-25
28
30
30
188
296
404
540
678
834
990
1260
1498
1738
1926
2114
1976
1898
1822
1732
1644
1304
964
256
-17
-293
-441
-589
-631
-569
-509
-421
-335
-333
-333
-323
-305
-287
-267
-249
-249
-243
-239
-235
-231
-223
-221
-219
-217
-217
-215
-215
-215
-213
-213
-213
-213
-209
-207
-205
-201
-199
-195
-191
-181
-175
-171
-165
-159
-147
-139
-133
-125
-117
-99
-89
-81
-71
-63
-53
-43
-21
-11
-1
10
20
40
50
60
70
80
90
98
114
122
130
138
146
158
164
170
176
184
196
202
210
216
224
230
238
254
262
270
278
288
306
316
326
336
346
356
366
386
394
404
414
424
440
448
458
466
474
488
494
500
506
512
516
520
526
528
530
530
530
526
522
518
510
504
494
486
462
446
432
440
448
408
384
360
334
308
284
260
194
162
132
102
70
8
-19
-49
-65
-83
-129
-151
-173
-185
-197
-211
-225
-247
-255
-263
-269
-275
-281
-281
-283
-281
-279
-273
-269
-257
-247
-239
-229
-219
-197
-183
-171
-159
-147
-123
-111
-99
-89
-79
-69
-59
-45
-39
-33
-29
-27
-23
-23
-25
-27
-29
-31
-35
-45
-49
-55
-59
-65
-77
-81
-87
-91
-95
-105
-107
-111
-113
-117
-119
-121
-123
-123
-125
-125
-127
-127
-125
-125
-123
-123
-121
-121
-115
-111
-107
-101
-97
-83
-75
-67
-57
-49
-27
-15
-3
10
22
36
48
76
88
100
112
124
144
160
166
172
176
180
184
184
184
182
180
172
166
160
154
150
142
134
120
112
104
96
88
72
66
60
54
46
36
32
28
24
20
18
16
14
16
16
18
20
26
32
36
42
48
56
62
80
90
98
108
118
136
146
154
162
172
190
196
204
208
214
218
222
226
226
228
226
226
220
216
214
210
206
200
196
188
182
178
174
170
162
158
156
154
150
148
148
148
148
148
148
148
148
150
150
150
150
148
146
140
138
134
130
124
118
112
96
88
78
68
58
36
24
12
0
-11
-23
-37
-63
-75
-87
-99
-111
-131
-139
-149
-155
-161
-165
-171
-175
-175
-177
-175
-173
-159
-151
-145
-131
-117
-125
-139
-155
-119
-85
-31
20
-23
72
168
296
426
738
908
1078
1218
1358
1612
1866
2204
2108
2014
1906
1798
1562
1172
784
326
-129
-821
-925
-1031
-1039
-1049
-953
-857
-701
-707
-715
-701
-689
-645
-621
-599
-599
-601
-595
-589
-577
-573
-569
-565
-563
-561
-561
-563
-563
-563
-565
-565
-567
-567
-567
-565
-565
-561
-557
-555
-551
-547
-537
-529
-523
-515
-507
-497
-487
-465
-453
-441
-427
-413
-385
-369
-353
-337
-323
-291
-275
-261
-245
-231
-217
-203
-179
-167
-155
-145
-135
-117
-109
-101
-93
-87
-79
-73
-61
-55
-49
-41
-35
-21
-13
-7
0
8
18
26
44
54
64
74
84
104
114
124
136
146
164
174
184
194
204
214
224
242
250
258
264
272
282
286
290
292
294
294
294
286
280
274
264
256
232
216
200
208
216
170
146
120
98
74
40
4
-63
-97
-131
-161
-193
-253
-267
-283
-307
-331
-351
-373
-411
-421
-433
-445
-457
-479
-487
-497
-503
-509
-517
-519
-521
-521
-521
-517
-515
-507
-501
-495
-487
-481
-463
-453
-443
-431
-421
-409
-399
-377
-365
-355
-345
-335
-317
-309
-301
-293
-287
-277
-273
-269
-265
-263
-261
-261
-261
-261
-261
-263
-265
-267
-269
-273
-275
-277
-279
-283
-287
-289
-291
-293
-295
-299
-299
-301
-301
-301
-301
-301
-299
-297
-297
-295
-295
-291
-289
-287
-283
-281
-277
-273
-271
-267
-265
-261
-259
-253
-249
-247
-245
-243
-237
-235
-233
-231
-229
-227
-225
-223
-221
-221
-221
-221
-221
-221
-223
-225
-227
-233
-235
-239
-243
-247
-251
-257
-267
-271
-277
-283
-289
-301
-307
-313
-317
-323
-327
-333
-343
-345
-349
-351
-355
-357
-357
-357
-355
-355
-351
-347
-343
-339
-335
-329
-323
-311
-305
-299
-293
-287
-273
-267
-261
-255
-251
-247
-243
-235
-233
-231
-229
-229
-229
-229
-231
-233
-235
-241
-243
-247
-251
-255
-259
-263
-273
-277
-281
-283
-287
-295
-297
-299
-301
-303
-303
-305
-305
-303
-303
-301
-301
-297
-293
-291
-287
-283
-277
-273
-263
-257
-251
-243
-237
-221
-213
-205
-195
-185
-165
-155
-145
-135
-125
-115
-105
-87
-79
-71
-65
-59
-49
-45
-43
-41
-41
-41
-43
-51
-55
-61
-67
-75
-93
-101
-111
-121
-131
-151
-161
-173
-183
-193
-201
-211
-227
-233
-241
-247
-253
-261
-263
-265
-265
-265
-263
-263
-255
-251
-249
-241
-235
-205
-207
-211
-211
-213
-143
-173
-203
-151
-99
-9
80
338
502
666
804
942
1406
1680
1956
2146
2336
2418
2502
2376
2164
1952
1642
1334
528
172
-181
-371
-563
-767
-751
-735
-587
-441
-443
-447
-427
-409
-393
-367
-341
-289
-277
-267
-253
-239
-225
-211
-185
-173
-161
-151
-141
-119
-109
-99
-89
-81
-71
-61
-41
-31
-21
-11
-1
18
28
38
50
60
80
90
100
110
120
130
138
154
160
168
176
184
196
200
206
210
214
216
220
224
226
228
228
228
230
230
230
230
232
234
236
238
240
244
248
252
264
270
278
286
296
320
332
346
360
376
374
374
412
432
454
476
500
546
570
594
618
644
690
712
736
754
772
786
802
828
836
846
850
856
858
856
856
848
842
830
820
852
830
810
784
758
740
702
664
622
582
494
450
406
362
318
274
230
148
108
68
32
-5
-75
-105
-137
-145
-153
-175
-199
-215
-227
-239
-247
-255
-265
-269
-273
-273
-273
-271
-271
-263
-257
-251
-245
-239
-223
-215
-209
-201
-195
-181
-175
-169
-163
-159
-155
-153
-149
-147
-147
-147
-149
-153
-157
-161
-165
-171
-177
-185
-199
-207
-217
-227
-237
-257
-269
-281
-293
-305
-329
-341
-355
-367
-381
-393
-407
-433
-445
-459
-471
-483
-505
-515
-527
-535
-543
-551
-559
-569
-573
-577
-579
-581
-581
-579
-579
-577
-575
-569
-565
-563
-559
-557
-553
-551
-547
-545
-545
-545
-545
-549
-551
-555
-559
-565
-569
-575
-589
-597
-605
-613
-621
-637
-645
-653
-659
-667
-681
-687
-695
-701
-707
-711
-717
-725
-727
-731
-733
-737
-741
-741
-743
-743
-743
-743
-743
-739
-737
-735
-731
-727
-717
-711
-705
-697
-689
-679
-671
-651
-639
-627
-613
-601
-573
-559
-545
-529
-515
-487
-473
-461
-449
-437
-425
-415
-397
-389
-383
-377
-371
-365
-363
-361
-359
-359
-359
-359
-361
-363
-365
-367
-369
-371
-373
-375
-375
-377
-375
-375
-375
-373
-371
-369
-367
-359
-355
-351
-345
-341
-329
-321
-315
-307
-301
-293
-285
-267
-259
-251
-241
-233
-217
-209
-203
-195
-189
-177
-171
-167
-161
-157
-153
-151
-145
-141
-139
-135
-133
-125
-121
-117
-111
-105
-97
-91
-75
-63
-53
-41
-31
-5
8
22
38
52
82
98
112
126
140
166
194
208
222
236
250
274
286
300
316
332
332
334
376
394
414
404
394
460
508
556
620
686
676
668
872
1010
1148
1314
1482
1850
2028
2206
2472
2738
3102
3164
3228
3128
3030
2766
2504
1768
1320
872
532
192
-295
-403
-513
-509
-505
-327
-151
-145
-111
-79
-31
16
114
154
196
192
190
238
258
280
288
298
310
322
342
352
362
370
378
394
402
410
416
424
430
438
452
458
466
472
480
492
498
504
510
516
524
526
530
532
536
536
538
538
538
538
536
536
534
532
532
532
532
532
532
534
534
536
538
542
546
550
554
556
560
568
572
578
582
588
592
598
610
616
622
628
636
652
660
670
680
692
702
714
740
752
766
780
794
824
836
850
862
876
886
898
916
922
928
930
934
932
928
924
916
910
884
896
910
888
868
842
818
790
756
722
684
648
574
534
496
456
416
376
336
256
216
178
142
106
36
6
-25
-35
-47
-95
-115
-137
-149
-161
-175
-189
-211
-221
-231
-239
-247
-257
-261
-265
-267
-271
-273
-275
-275
-275
-275
-275
-275
-273
-273
-273
-273
-275
-275
-277
-279
-281
-283
-287
-291
-297
-301
-307
-311
-317
-327
-333
-339
-345
-351
-357
-363
-373
-379
-385
-389
-395
-403
-407
-413
-415
-419
-427
-429
-433
-435
-437
-437
-439
-441
-441
-441
-439
-439
-437
-435
-433
-431
-429
-427
-425
-419
-417
-415
-413
-411
-409
-407
-407
-407
-407
-407
-407
-409
-411
-413
-415
-417
-421
-423
-427
-429
-433
-437
-439
-443
-443
-445
-447
-449
-451
-451
-451
-451
-451
-449
-447
-445
-443
-443
-439
-437
-431
-427
-425
-421
-419
-413
-409
-405
-401
-397
-387
-381
-377
-371
-365
-359
-353
-337
-329
-321
-311
-301
-281
-271
-261
-249
-239
-229
-219
-199
-189
-181
-173
-165
-153
-147
-143
-139
-137
-133
-133
-133
-133
-133
-133
-135
-139
-141
-143
-143
-145
-145
-145
-145
-143
-143
-141
-139
-131
-127
-123
-117
-113
-103
-95
-89
-81
-75
-61
-53
-45
-35
-27
-17
-9
10
20
30
40
50
70
80
88
98
106
114
120
132
136
140
142
142
142
140
136
132
128
122
114
100
92
82
74
64
46
38
30
22
14
0
-3
-9
-11
-15
-17
-21
-23
-23
-23
-21
-19
-13
-9
-7
-1
4
8
12
26
38
48
58
66
98
96
94
80
66
136
188
242
222
202
290
378
626
782
938
1112
1286
1630
1900
2172
2334
2498
2556
2616
2458
2236
2014
1672
1330
524
184
-155
-397
-641
-845
-825
-805
-637
-469
-467
-465
-405
-363
-321
-281
-243
-187
-207
-229
-215
-201
-189
-177
-159
-151
-145
-139
-135
-121
-115
-109
-101
-95
-83
-75
-69
-61
-55
-47
-39
-23
-15
-7
0
6
22
30
36
42
48
54
60
70
74
78
82
86
90
94
96
98
98
100
100
102
104
104
106
106
108
110
112
114
116
122
126
130
136
140
146
164
172
180
188
198
218
230
242
254
266
278
292
322
336
352
368
384
418
434
450
466
484
516
530
546
560
574
584
596
614
620
626
628
632
630
626
622
614
606
594
584
552
560
568
544
522
468
448
430
396
362
292
256
220
184
150
116
80
12
-17
-47
-75
-103
-129
-151
-175
-197
-219
-229
-241
-265
-273
-283
-289
-297
-305
-305
-307
-305
-303
-295
-289
-283
-275
-267
-257
-249
-231
-221
-211
-201
-193
-177
-171
-165
-159
-153
-149
-147
-143
-143
-143
-143
-145
-149
-153
-157
-161
-167
-171
-177
-189
-195
-201
-205
-211
-223
-227
-233
-237
-243
-253
-257
-261
-265
-269
-271
-275
-281
-283
-285
-285
-287
-289
-289
-289
-287
-287
-285
-283
-279
-275
-271
-267
-263
-253
-247
-241
-235
-231
-219
-215
-211
-207
-203
-199
-197
-193
-193
-193
-195
-197
-205
-209
-213
-219
-227
-233
-241
-259
-267
-277
-285
-295
-313
-321
-331
-339
-347
-363
-371
-379
-385
-393
-399
-405
-419
-425
-431
-437
-443
-455
-461
-467
-473
-479
-485
-493
-507
-513
-519
-527
-535
-549
-557
-565
-571
-579
-595
-603
-611
-617
-625
-631
-639
-651
-655
-661
-665
-671
-677
-679
-683
-683
-685
-685
-685
-683
-681
-679
-675
-673
-667
-661
-657
-651
-647
-641
-637
-625
-619
-613
-605
-599
-585
-577
-569
-559
-551
-531
-519
-509
-497
-485
-471
-457
-429
-413
-397
-381
-365
-357
-337
-317
-295
-275
-255
-235
-193
-177
-163
-149
-137
-115
-107
-99
-93
-87
-81
-79
-79
-81
-83
-87
-91
-101
-107
-115
-123
-131
-147
-155
-163
-171
-179
-185
-193
-203
-207
-213
-215
-219
-223
-223
-223
-221
-221
-213
-207
-203
-195
-187
-179
-171
-151
-141
-131
-133
-137
-91
-69
-47
-51
-55
-17
18
-13
120
252
254
256
492
642
794
902
1012
1500
1754
2008
2210
2414
2522
2630
2566
2384
2202
1920
1638
884
518
154
-39
-235
-343
-453
-447
-295
-145
-149
-155
-125
-109
-93
-67
-41
-15
10
24
38
50
62
74
96
106
116
126
134
150
158
166
174
182
190
200
220
230
240
250
262
286
298
312
324
336
348
362
386
396
408
418
428
446
452
458
462
468
474
474
476
476
476
474
472
468
464
462
460
458
454
454
454
454
456
458
462
474
480
488
496
506
528
540
552
566
580
608
622
638
652
668
684
700
730
746
762
776
792
822
836
850
864
878
890
902
924
932
942
948
954
962
960
960
958
956
940
928
916
932
950
928
906
852
842
832
792
752
668
622
578
530
484
438
392
300
256
214
174
136
64
34
4
0
-3
-25
-49
-89
-99
-111
-123
-135
-155
-163
-173
-181
-189
-199
-203
-207
-209
-213
-213
-215
-215
-215
-215
-213
-213
-211
-209
-209
-207
-207
-205
-205
-205
-203
-203
-203
-203
-205
-205
-207
-207
-209
-213
-215
-217
-219
-223
-225
-227
-233
-235
-239
-241
-245
-251
-253
-255
-257
-261
-263
-265
-267
-269
-271
-271
-271
-271
-269
-269
-267
-267
-261
-257
-255
-251
-247
-243
-239
-229
-223
-219
-213
-209
-197
-193
-189
-183
-179
-175
-171
-165
-163
-161
-159
-159
-159
-159
-161
-163
-165
-169
-173
-177
-181
-187
-191
-197
-209
-215
-223
-229
-237
-251
-257
-265
-271
-279
-285
-291
-303
-309
-315
-319
-325
-331
-333
-337
-339
-341
-341
-341
-341
-339
-339
-335
-333
-327
-323
-321
-317
-313
-303
-299
-295
-289
-285
-281
-277
-269
-265
-263
-259
-255
-251
-249
-247
-245
-243
-241
-241
-239
-239
-239
-239
-241
-241
-241
-243
-245
-247
-251
-253
-255
-257
-259
-261
-265
-271
-273
-277
-279
-281
-287
-289
-291
-291
-293
-293
-295
-293
-291
-289
-285
-283
-273
-265
-259
-251
-243
-225
-213
-203
-191
-179
-167
-155
-129
-115
-103
-91
-79
-57
-47
-37
-29
-21
-15
-11
-5
-3
-3
-5
-7
-15
-21
-27
-35
-43
-61
-71
-81
-91
-101
-109
-119
-139
-147
-155
-161
-169
-181
-185
-189
-193
-197
-199
-201
-205
-205
-205
-205
-205
-203
-199
-197
-193
-189
-183
-177
-167
-159
-151
-137
-123
-143
-121
-99
-75
-51
-91
-45
-1
62
124
206
288
306
430
554
714
874
1244
1432
1620
1904
2188
2424
2660
2838
2558
2278
2192
2106
1168
720
274
-81
-439
-859
-917
-977
-927
-879
-743
-607
-595
-563
-533
-495
-457
-391
-367
-345
-353
-363
-347
-333
-305
-295
-285
-277
-269
-255
-245
-237
-229
-223
-209
-201
-195
-187
-181
-175
-169
-157
-149
-143
-137
-131
-121
-115
-109
-103
-99
-95
-91
-81
-77
-73
-69
-65
-57
-53
-49
-45
-41
-33
-27
-23
-19
-15
-9
-5
4
10
14
20
26
36
42
48
54
60
66
72
86
94
102
112
120
140
150
160
172
186
200
216
248
248
248
268
288
332
354
376
400
424
470
492
514
530
546
560
574
598
606
616
620
626
630
628
626
620
616
608
600
574
582
592
570
550
502
492
482
446
412
338
298
258
218
178
138
98
22
-13
-49
-57
-65
-113
-117
-121
-133
-145
-151
-159
-167
-167
-169
-167
-167
-159
-153
-149
-143
-137
-121
-113
-107
-99
-93
-87
-81
-71
-67
-65
-61
-59
-57
-57
-57
-57
-59
-59
-61
-65
-67
-69
-71
-75
-79
-81
-83
-85
-87
-91
-93
-95
-97
-99
-101
-103
-105
-107
-109
-111
-115
-119
-121
-123
-125
-127
-129
-131
-135
-137
-139
-139
-141
-141
-139
-139
-137
-137
-135
-135
-129
-127
-125
-121
-119
-111
-107
-105
-101
-99
-95
-93
-91
-89
-87
-87
-87
-89
-89
-91
-93
-97
-105
-109
-113
-117
-123
-129
-135
-145
-151
-157
-163
-169
-181
-185
-189
-193
-199
-205
-207
-209
-211
-213
-213
-215
-213
-211
-211
-207
-205
-199
-195
-191
-185
-181
-175
-171
-159
-151
-145
-139
-133
-119
-113
-107
-101
-95
-83
-77
-73
-69
-65
-61
-57
-53
-51
-49
-47
-47
-45
-45
-45
-45
-45
-45
-45
-45
-45
-45
-45
-45
-45
-45
-45
-45
-45
-45
-45
-45
-45
-45
-43
-43
-43
-41
-41
-39
-37
-31
-27
-25
-19
-15
-9
-3
10
18
26
36
44
64
74
82
92
100
108
116
130
134
138
140
142
142
140
138
134
128
114
106
96
88
78
68
58
36
28
18
8
-1
-17
-23
-31
-35
-41
-45
-49
-55
-55
-57
-57
-59
-57
-55
-55
-51
-47
-39
-33
-27
-21
-17
-7
0
26
40
52
46
40
86
72
56
100
142
202
264
240
344
448
586
724
1060
1246
1432
1614
1796
2332
2518
2706
2784
2864
2796
2730
2276
1920
1566
1144
722
-95
-323
-551
-671
-791
-769
-749
-337
-329
-321
-287
-253
-155
-109
-63
-29
4
-59
-43
-27
-13
-1
8
18
32
36
40
48
56
72
82
90
100
108
118
126
146
156
166
176
186
208
216
226
234
242
248
256
268
272
276
278
280
282
282
282
280
278
274
272
270
268
266
264
262
260
260
260
260
260
264
266
270
274
280
284
290
304
312
320
328
338
358
370
382
394
406
434
448
464
478
494
510
528
538
556
576
596
616
664
680
696
710
724
736
748
766
772
780
782
784
784
780
776
768
760
736
748
760
738
718
692
668
646
610
576
538
502
422
380
340
298
258
218
178
100
64
26
-7
-43
-105
-109
-113
-133
-155
-173
-185
-197
-205
-215
-219
-225
-235
-237
-241
-241
-243
-241
-239
-237
-233
-231
-227
-225
-217
-213
-209
-205
-201
-193
-189
-187
-185
-183
-181
-181
-179
-179
-179
-179
-181
-183
-185
-187
-189
-191
-197
-199
-201
-203
-207
-209
-213
-217
-219
-221
-223
-225
-227
-227
-227
-227
-227
-225
-225
-221
-217
-215
-211
-207
-197
-189
-183
-175
-167
-147
-137
-127
-115
-103
-91
-79
-55
-41
-29
-17
-7
14
24
32
40
48
54
58
66
68
68
68
66
60
56
52
46
40
28
22
14
6
-1
-9
-17
-31
-39
-47
-53
-59
-73
-77
-83
-87
-93
-97
-101
-109
-111
-115
-117
-119
-121
-121
-121
-119
-119
-115
-111
-109
-105
-101
-95
-91
-79
-73
-69
-63
-57
-45
-39
-35
-31
-27
-25
-23
-21
-21
-21
-23
-27
-35
-41
-47
-55
-63
-71
-79
-97
-105
-115
-123
-133
-151
-157
-165
-171
-179
-189
-193
-197
-199
-203
-205
-207
-207
-207
-207
-205
-203
-197
-193
-189
-183
-177
-171
-165
-151
-143
-135
-125
-117
-99
-89
-81
-71
-63
-47
-41
-35
-29
-23
-19
-17
-15
-15
-17
-21
-25
-35
-41
-49
-57
-65
-73
-83
-101
-111
-121
-129
-139
-157
-165
-173
-181
-189
-201
-207
-213
-217
-223
-225
-229
-233
-233
-235
-233
-233
-235
-231
-227
-219
-211
-203
-195
-165
-171
-177
-199
-221
-141
-81
-23
-39
-57
138
274
410
578
748
932
1116
1458
1776
2094
2246
2398
2386
2204
2022
1724
1426
1008
590
-109
-371
-635
-765
-895
-923
-739
-557
-567
-579
-559
-541
-471
-433
-395
-365
-335
-367
-355
-343
-331
-321
-305
-301
-297
-295
-293
-289
-287
-281
-279
-279
-277
-275
-271
-267
-263
-259
-255
-249
-243
-229
-221
-213
-203
-193
-171
-159
-149
-135
-123
-99
-87
-75
-63
-51
-41
-31
-11
-1
6
14
22
36
42
46
50
54
58
62
68
72
74
76
78
84
88
90
94
98
106
112
118
124
130
138
146
162
172
184
196
208
234
248
264
280
296
298
302
338
358
380
400
422
466
488
510
532
554
586
598
612
622
634
642
650
656
656
656
652
650
634
622
610
622
636
614
592
542
524
508
472
438
368
332
296
260
226
192
160
100
88
74
52
28
-13
-23
-35
-47
-61
-81
-89
-97
-103
-109
-113
-117
-119
-117
-117
-113
-111
-101
-95
-89
-81
-73
-65
-57
-41
-31
-23
-15
-7
8
16
22
28
34
44
48
52
56
58
60
62
64
64
64
64
62
60
60
58
56
54
54
52
48
46
44
42
40
36
34
32
30
26
20
18
14
12
8
6
2
-3
-5
-7
-7
-9
-9
-7
-7
-3
-1
2
6
18
26
32
40
48
64
74
82
90
98
112
118
124
130
134
136
138
138
136
134
132
128
116
110
102
94
86
78
68
50
42
32
24
14
0
-5
-13
-19
-25
-29
-35
-43
-45
-47
-49
-51
-51
-49
-49
-47
-45
-39
-35
-31
-27
-23
-17
-11
2
10
16
24
32
48
58
66
76
84
94
102
120
128
136
144
164
170
176
180
186
194
196
200
202
206
206
208
210
210
210
210
210
206
204
204
202
200
196
194
190
186
184
182
180
176
174
174
172
172
174
174
176
180
184
188
192
204
212
220
228
236
256
266
276
284
294
302
312
330
336
342
346
352
358
358
358
354
352
344
336
330
320
312
300
290
266
252
240
226
214
188
174
162
142
132
120
102
96
88
84
78
72
72
72
72
70
74
76
92
98
104
120
136
128
112
94
132
168
268
238
208
320
434
590
748
936
1220
1506
1806
2106
2550
2640
2730
2658
2586
2360
2136
1502
1136
770
424
78
-301
-421
-543
-573
-603
-535
-443
-351
-343
-337
-331
-325
-289
-269
-249
-239
-231
-215
-207
-201
-193
-187
-181
-175
-167
-163
-161
-157
-155
-149
-147
-145
-141
-137
-129
-123
-119
-113
-107
-99
-93
-77
-67
-59
-49
-41
-19
-9
0
12
22
34
44
64
74
84
92
100
116
124
130
136
140
148
154
156
160
162
164
170
172
174
178
182
190
194
200
206
214
222
230
248
258
270
282
294
320
334
348
364
380
396
414
422
440
460
478
498
540
560
580
600
622
664
682
702
716
730
742
754
770
774
780
780
782
780
772
766
754
744
760
776
732
706
680
672
664
582
536
492
446
400
306
260
214
170
128
88
48
-25
-57
-89
-93
-97
-143
-163
-183
-197
-213
-227
-243
-267
-279
-291
-301
-313
-331
-339
-347
-353
-359
-369
-373
-377
-379
-381
-381
-381
-379
-377
-375
-371
-367
-359
-353
-349
-345
-341
-335
-331
-323
-319
-317
-315
-313
-311
-311
-311
-311
-313
-317
-319
-321
-323
-327
-329
-331
-337
-337
-339
-339
-341
-341
-339
-339
-337
-335
-331
-329
-321
-317
-313
-307
-301
-289
-283
-277
-269
-263
-255
-249
-233
-225
-217
-209
-201
-185
-177
-169
-161
-155
-141
-135
-129
-123
-119
-115
-111
-105
-103
-103
-103
-103
-107
-109
-113
-117
-123
-127
-133
-147
-153
-161
-167
-175
-191
-197
-205
-213
-221
-235
-241
-247
-253
-259
-263
-269
-277
-281
-285
-289
-293
-297
-299
-303
-303
-305
-305
-307
-309
-307
-307
-305
-305
-299
-295
-293
-289
-285
-273
-267
-261
-253
-247
-239
-233
-219
-211
-203
-195
-189
-177
-171
-165
-159
-155
-151
-147
-141
-139
-137
-135
-135
-133
-133
-133
-133
-133
-133
-131
-131
-129
-129
-127
-125
-117
-111
-107
-101
-95
-81
-73
-65
-55
-45
-35
-25
-5
6
16
26
36
54
62
70
78
84
90
96
104
106
108
108
108
106
104
102
98
94
84
80
74
68
62
56
50
38
34
28
22
16
8
4
-1
-3
-7
-9
-13
-19
-19
-21
-21
-21
-21
-17
-15
-11
-7
0
8
16
24
30
44
56
42
68
92
84
74
170
150
130
212
294
412
530
830
1004
1178
1358
1538
2022
2228
2434
2550
2666
2600
2394
2188
1836
1486
1054
622
-195
-389
-585
-665
-747
-639
-489
-341
-335
-331
-331
-333
-291
-263
-237
-215
-193
-203
-195
-189
-181
-173
-161
-157
-153
-151
-149
-147
-145
-141
-137
-135
-133
-131
-123
-119
-115
-109
-105
-99
-93
-81
-73
-65
-57
-49
-29
-19
-9
2
12
24
34
60
72
84
98
110
134
146
158
168
180
202
210
220
228
236
242
250
260
264
268
272
276
280
282
284
284
286
288
290
294
296
298
300
304
312
316
322
328
336
350
358
366
376
386
396
406
426
438
450
460
472
494
504
514
522
532
540
550
562
566
572
574
576
574
570
568
562
556
538
526
516
500
484
490
498
454
428
402
390
378
308
270
232
192
110
68
-17
-59
-101
-141
-181
-255
-287
-319
-317
-317
-357
-365
-373
-385
-397
-405
-413
-423
-427
-433
-435
-439
-441
-441
-441
-439
-437
-433
-431
-423
-417
-413
-407
-401
-389
-381
-375
-367
-359
-351
-345
-329
-321
-315
-309
-303
-291
-287
-283
-279
-275
-271
-269
-269
-269
-269
-269
-269
-273
-275
-277
-279
-281
-287
-289
-293
-295
-299
-303
-307
-313
-317
-321
-325
-329
-337
-341
-347
-351
-355
-361
-363
-367
-369
-373
-373
-375
-377
-375
-375
-373
-371
-365
-361
-357
-351
-347
-341
-335
-323
-317
-311
-303
-297
-285
-279
-273
-267
-261
-253
-249
-247
-243
-241
-239
-239
-237
-237
-239
-239
-241
-245
-247
-249
-253
-257
-259
-263
-271
-275
-279
-283
-287
-297
-299
-303
-307
-311
-317
-317
-319
-319
-321
-321
-321
-319
-317
-315
-311
-307
-299
-293
-287
-281
-275
-269
-263
-251
-243
-237
-231
-227
-217
-213
-209
-205
-203
-201
-201
-201
-201
-203
-205
-207
-213
-217
-223
-229
-235
-247
-255
-263
-269
-277
-285
-293
-307
-315
-323
-329
-337
-347
-351
-357
-361
-365
-367
-369
-371
-369
-369
-367
-367
-361
-357
-353
-347
-343
-333
-327
-321
-315
-309
-303
-297
-285
-279
-275
-269
-265
-255
-251
-247
-243
-241
-237
-235
-231
-229
-229
-229
-229
-229
-229
-231
-231
-233
-237
-239
-241
-241
-243
-245
-247
-247
-243
-241
-239
-237
-235
-229
-225
-211
-199
-207
-215
-165
-169
-175
-195
-217
-99
-17
62
172
282
564
724
884
1046
1208
1434
1662
2030
2122
2216
2180
2146
1806
1524
1244
902
562
232
-95
-457
-551
-647
-633
-619
-329
-329
-331
-319
-309
-293
-277
-227
-203
-181
-179
-179
-159
-151
-143
-135
-127
-117
-113
-109
-105
-103
-99
-97
-91
-89
-87
-83
-81
-75
-71
-69
-65
-63
-59
-55
-45
-39
-35
-29
-25
-13
-5
0
8
14
32
42
50
60
70
80
90
112
124
134
146
156
178
188
200
210
220
230
240
258
266
274
280
288
302
308
316
322
328
340
346
354
362
370
378
386
402
412
422
432
442
464
474
486
496
508
518
530
550
558
566
574
582
592
596
600
602
604
604
602
602
598
594
590
586
572
564
556
546
538
516
504
494
480
466
450
436
404
404
404
386
368
328
306
284
260
238
214
192
144
120
96
72
48
4
-15
-37
-51
-65
-93
-105
-117
-127
-137
-143
-151
-163
-165
-169
-169
-171
-169
-165
-163
-159
-157
-151
-145
-133
-125
-119
-111
-105
-89
-79
-71
-63
-55
-37
-29
-21
-13
-5
2
8
22
28
34
40
44
54
58
60
62
64
66
68
70
70
70
70
68
66
64
62
60
56
50
46
42
38
32
26
20
6
-1
-9
-17
-27
-43
-53
-63
-71
-81
-89
-97
-113
-119
-125
-129
-135
-141
-143
-145
-143
-143
-139
-135
-133
-129
-127
-123
-119
-111
-107
-103
-101
-99
-97
-97
-97
-99
-101
-105
-109
-117
-121
-127
-133
-141
-153
-159
-167
-173
-181
-187
-195
-207
-213
-221
-227
-233
-243
-247
-253
-257
-263
-273
-277
-281
-285
-289
-293
-297
-305
-307
-311
-313
-315
-319
-319
-321
-321
-321
-321
-321
-319
-315
-313
-309
-307
-299
-293
-289
-283
-279
-267
-261
-255
-249
-243
-237
-231
-219
-213
-207
-201
-197
-187
-183
-179
-175
-171
-167
-165
-159
-155
-153
-151
-149
-145
-143
-143
-141
-141
-143
-143
-145
-145
-147
-149
-151
-157
-159
-163
-165
-169
-175
-177
-179
-179
-181
-181
-181
-181
-177
-175
-171
-169
-159
-151
-145
-137
-131
-117
-109
-101
-93
-85
-77
-69
-55
-47
-41
-33
-27
-15
-7
-1
6
14
20
26
42
56
70
84
98
82
108
132
112
90
134
178
306
316
326
438
550
808
956
1106
1226
1346
1726
1938
2150
2034
1920
1802
1684
1414
1034
654
226
-199
-717
-863
-1009
-1003
-997
-769
-541
-535
-405
-275
-255
-237
-163
-163
-163
-151
-139
-87
-81
-77
-67
-59
-53
-49
-39
-35
-31
-29
-29
-31
-31
-33
-35
-39
-41
-43
-47
-49
-51
-51
-53
-53
-51
-51
-47
-45
-39
-35
-31
-25
-19
-13
-7
4
12
18
26
34
50
60
68
78
88
98
108
130
142
164
178
206
220
234
248
262
290
304
320
332
346
358
372
398
408
420
430
440
458
466
474
480
488
494
502
514
518
524
528
534
542
546
550
554
558
560
562
566
566
566
564
564
558
552
548
540
534
518
508
498
486
474
460
446
418
402
386
370
354
320
304
288
272
256
240
224
192
176
162
148
134
106
94
80
68
54
28
16
2
-9
-21
-33
-45
-69
-79
-91
-101
-113
-135
-145
-155
-163
-173
-181
-189
-205
-211
-219
-223
-229
-237
-239
-243
-245
-247
-247
-245
-243
-239
-237
-233
-231
-221
-215
-209
-203
-197
-183
-177
-171
-163
-157
-151
-147
-137
-133
-131
-129
-127
-125
-125
-127
-129
-131
-139
-143
-147
-153
-159
-165
-171
-183
-189
-195
-201
-207
-215
-219
-223
-227
-231
-233
-235
-237
-237
-239
-239
-241
-241
-241
-241
-241
-243
-243
-245
-249
-251
-253
-255
-259
-265
-269
-273
-275
-279
-283
-285
-289
-289
-291
-291
-293
-293
-293
-293
-293
-293
-291
-291
-291
-291
-291
-293
-295
-299
-303
-307
-311
-317
-331
-339
-347
-355
-365
-385
-395
-407
-419
-431
-443
-455
-481
-493
-505
-519
-533
-559
-571
-585
-597
-609
-621
-635
-657
-667
-677
-685
-695
-709
-713
-719
-721
-723
-723
-719
-717
-711
-705
-695
-687
-663
-647
-633
-617
-601
-601
-577
-555
-531
-507
-483
-459
-413
-391
-369
-355
-341
-313
-301
-291
-281
-273
-263
-261
-259
-259
-259
-261
-265
-275
-281
-289
-297
-305
-325
-333
-343
-353
-363
-373
-383
-401
-407
-415
-421
-429
-441
-445
-451
-453
-457
-459
-461
-461
-459
-457
-453
-449
-437
-429
-421
-409
-399
-371
-381
-393
-373
-355
-333
-311
-259
-227
-197
-175
-155
-65
-37
-11
34
78
134
190
340
434
528
644
760
1022
1170
1318
1434
1550
1916
2110
2304
2184
2066
1942
1818
1540
1156
774
348
-75
-589
-737
-887
-893
-901
-817
-733
-515
-489
-465
-421
-379
-289
-251
-215
-189
-163
-185
-165
-147
-137
-127
-117
-107
-93
-87
-83
-77
-73
-65
-61
-59
-57
-55
-53
-53
-51
-49
-49
-47
-45
-43
-41
-41
-39
-37
-31
-27
-25
-21
-19
-13
-9
0
6
10
16
22
36
44
50
58
66
76
84
102
112
120
130
140
158
168
180
192
204
216
230
256
270
286
300
316
320
338
356
374
394
434
456
478
500
522
544
568
614
636
660
682
704
734
748
762
772
784
792
800
810
812
814
812
810
798
788
780
766
754
722
728
734
710
688
660
634
598
564
530
494
458
386
348
312
276
240
204
170
106
94
80
56
32
-11
-29
-49
-59
-69
-95
-105
-117
-127
-137
-143
-151
-163
-167
-173
-175
-179
-185
-185
-187
-189
-191
-191
-193
-195
-195
-197
-197
-199
-205
-207
-209
-213
-217
-225
-229
-235
-239
-245
-251
-257
-269
-275
-281
-287
-293
-305
-309
-315
-319
-323
-327
-331
-337
-339
-341
-341
-343
-345
-343
-343
-341
-341
-339
-337
-333
-329
-327
-323
-321
-317
-315
-313
-311
-311
-311
-311
-313
-315
-317
-321
-325
-337
-343
-351
-359
-367
-387
-397
-407
-417
-429
-439
-449
-471
-481
-491
-499
-509
-527
-533
-541
-547
-553
-561
-563
-567
-569
-571
-571
-573
-569
-567
-565
-561
-557
-545
-537
-529
-519
-511
-499
-487
-463
-447
-431
-435
-441
-401
-377
-355
-327
-301
-273
-235
-197
-157
-117
-77
-39
34
44
52
76
98
114
128
140
148
156
162
168
176
176
178
178
178
174
170
168
164
160
148
142
138
132
128
122
114
110
106
104
100
94
94
92
92
92
94
94
98
102
106
112
118
132
140
148
154
162
170
180
198
206
214
220
228
238
240
242
242
242
236
230
226
216
208
196
186
160
146
132
116
98
84
64
42
22
2
-15
-35
-73
-91
-109
-125
-143
-177
-199
-223
-239
-255
-283
-297
-311
-321
-333
-343
-353
-369
-373
-377
-381
-385
-381
-371
-361
-373
-387
-397
-409
-337
-351
-365
-313
-261
-99
12
124
266
410
744
920
1096
1256
1418
1690
1964
2246
2254
2264
1982
1702
1388
1014
642
236
-167
-429
-693
-1035
-1083
-1133
-1095
-1057
-797
-783
-769
-735
-703
-625
-591
-559
-571
-585
-575
-565
-539
-527
-515
-505
-497
-483
-473
-463
-453
-443
-431
-421
-397
-385
-373
-359
-347
-319
-305
-291
-277
-265
-251
-239
-215
-205
-195
-185
-177
-165
-159
-153
-149
-145
-139
-137
-135
-133
-131
-127
-125
-119
-113
-109
-103
-99
-83
-73
-63
-51
-41
-27
-15
14
32
48
52
54
94
116
136
156
176
220
242
266
288
312
336
362
414
426
440
468
496
558
594
630
672
714
758
804
902
958
1016
1058
1100
1196
1238
1282
1318
1356
1418
1414
1410
1430
1450
1456
1462
1482
1488
1496
1498
1502
1510
1512
1514
1514
1514
1512
1512
1510
1508
1508
1508
1508
1508
1510
1512
1514
1516
1522
1526
1532
1538
1544
1550
1558
1576
1584
1594
1604
1614
1638
1650
1662
1674
1688
1702
1716
1746
1760
1776
1792
1808
1840
1854
1870
1886
1902
1916
1932
1960
1972
1984
1996
2008
2028
2036
2044
2050
2056
2066
2068
2072
2074
2076
2074
2074
2072
2068
2064
2058
2054
2042
2034
2028
2018
2010
2000
1990
1966
1954
1942
1928
1916
1890
1876
1862
1848
1834
1806
1792
1780
1766
1754
1742
1732
1712
1702
1694
1686
1678
1664
1658
1652
1646
1642
1636
1632
1622
1616
1610
1604
1598
1582
1574
1566
1556
1546
1524
1512
1500
1486
1474
1460
1448
1418
1404
1390
1374
1358
1328
1312
1298
1282
1268
1252
1236
1206
1190
1176
1160
1146
1116
1102
1088
1074
1060
1034
1022
1012
1000
990
980
970
954
946
940
934
930
922
918
916
912
910
908
906
900
896
892
886
882
868
860
852
840
830
816
804
774
778
784
762
742
696
670
646
620
596
544
518
494
470
446
422
400
358
338
318
300
284
248
232
218
204
190
176
162
140
130
118
108
98
80
72
64
58
50
36
32
26
22
16
12
8
0
-3
-9
-13
-19
-31
-39
-47
-55
-65
-77
-89
-115
-129
-145
-141
-139
-179
-201
-223
-247
-271
-321
-347
-373
-399
-425
-453
-481
-535
-561
-589
-623
-657
-705
-725
-745
-769
-793
-809
-825
-853
-867
-883
-893
-903
-907
-909
-911
-903
-895
-927
-959
-993
-955
-919
-861
-803
-843
-735
-629
-487
-347
-21
122
266
518
772
970
1170
1056
988
922
846
772
102
-287
-679
-1031
-1383
-1575
-1769
-1999
-2019
-2041
-2005
-1969
-1875
-1879
-1885
-1903
-1921
-1919
-1917
-1915
-1917
-1921
-1929
-1939
-1957
-1967
-1979
-1991
-2003
-2031
-2045
-2061
-2075
-2091
-2105
-2121
-2151
-2163
-2177
-2189
-2203
-2225
-2235
-2245
-2251
-2259
-2271
-2273
-2277
-2279
-2281
-2279
-2279
-2275
-2271
-2269
-2263
-2259
-2249
-2243
-2237
-2231
-2225
-2219
-2215
-2205
-2201
-2197
-2193
-2189
-2185
-2183
-2183
-2181
-2181
-2183
-2183
-2183
-2185
-2187
-2187
-2189
-2191
-2191
-2193
-2193
-2195
-2193
-2191
-2191
-2189
-2187
-2183
-2179
-2169
-2163
-2157
-2149
-2141
-2123
-2111
-2101
-2089
-2077
-2053
-2039
-2025
-2011
-1999
-1985
-1971
-1947
-1935
-1923
-1913
-1905
-1891
-1887
-1883
-1881
-1881
-1883
-1885
-1897
-1907
-1917
