11543
11509
11376
11178
10967
10776
10610
10463
10341
10264
10241
10258
10291
10326
10369
10419
10465
10488
10485
10474
10476
10491
10501
10496
10488
10496
10522
10542
10536
10511
10494
10508
10536
10546
10521
10479
10454
10463
10488
10505
10509
10513
10531
10557
10573
10569
10553
10540
10536
10541
10554
10576
10599
10605
10581
10539
10512
10530
10584
10638
10656
10635
10601
10580
10575
10572
10563
10560
10573
10598
10617
10616
10602
10593
10599
10613
10620
10614
10604
10602
10609
10621
10634
10651
10674
10697
10705
10693
10673
10663
10674
10697
10716
10723
10722
10725
10735
10744
10743
10736
10735
10748
10769
10785
10788
10785
10790
10808
10832
10847
10850
10850
10856
10867
10871
10867
10863
10875
10902
10927
10931
10913
10891
10880
10878
10874
10867
10869
10890
10918
10920
10878
10812
10764
10765
10805
10845
10857
10842
10823
10811
10799
10776
10745
10717
10700
10690
10677
10660
10645
10637
10631
10621
10609
10604
10604
10599
10577
10546
10529
10541
10575
10603
10604
10584
10564
10560
10570
10585
10598
10610
10618
10609
10580
10542
10519
10531
10569
10611
10633
10630
10611
10587
10565
10549
10543
10551
10569
10591
10610
10626
10637
10640
10633
10621
10613
10615
10623
10626
10619
10608
10601
10603
10606
10605
10599
10596
10600
10611
10630
10657
10690
10713
10709
10670
10614
10569
10551
10557
10570
10581
10595
10620
10648
10661
10650
10623
10598
10589
10594
10604
10615
10628
10639
10638
10619
10590
10573
10584
10617
10653
10672
10666
10641
10607
10576
10565
10583
10630
10680
10700
10676
10623
10584
10586
10626
10666
10669
10628
10575
10547
10560
10599
10629
10633
10619
10609
10617
10636
10650
10649
10639
10631
10630
10630
10625
10618
10614
10615
10619
10622
10625
10631
10634
10628
10615
10606
10611
10625
10629
10613
10592
10590
10611
10630
10621
10585
10564
10592
10661
10720
10727
10686
10640
10623
10633
10643
10641
10638
10646
10655
10644
10613
10592
10611
10663
10711
10721
10697
10670
10656
10644
10616
10579
10563
10588
10636
10674
10685
10681
10685
10698
10701
10683
10657
10649
10664
10679
10671
10641
10612
10605
10618
10637
10651
10662
10672
10677
10672
10663
10663
10677
10695
10701
10695
10692
10705
10733
10763
10782
10789
10786
10768
10735
10698
10681
10694
10720
10729
10708
10672
10651
10653
10658
10648
10629
10628
10661
10706
10729
10714
10680
10659
10666
10683
10687
10672
10647
10624
10604
10588
10586
10611
10663
10719
10748
10736
10697
10659
10644
10649
10659
10660
10651
10641
10641
10649
10655
10648
10628
10612
10618
10654
10709
10767
10822
10887
10975
11084
11194
11286
11360
11432
11512
11590
11642
11646
11596
11495
11350
11168
10969
10783
10637
10537
10474
10438
10426
10442
10481
10526
10563
10591
10619
10651
10682
10701
10708
10714
10721
10721
10701
10664
10630
10622
10641
10669
10685
10691
10704
10733
10766
10776
10749
10698
10656
10644
10663
10693
10717
10727
10725
10719
10712
10710
10717
10737
10764
10788
10794
10780
10752
10723
10703
10700
10713
10741
10774
10798
10801
10781
10753
10736
10745
10776
10814
10841
10849
10835
10797
10743
10695
10680
10715
10786
10851
10872
10840
10789
10761
10776
10822
10869
10896
10900
10891
10875
10858
10850
10860
10891
10931
10959
10966
10956
10944
10943
10955
10975
10999
11023
11045
11062
11073
11079
11080
11073
11058
11040
11027
11027
11039
11057
11077
11096
11105
11099
11078
11059
11061
11085
11108
11101
11060
11013
10998
11020
11049
11053
11032
11016
11030
11062
11078
11056
11013
10977
10959
10942
10911
10878
10869
10892
10918
10911
10864
10810
10791
10816
10855
10873
10858
10822
10787
10760
10745
10745
10763
10790
10810
10809
10793
10778
10775
10775
10769
10762
10769
10792
10810
10792
10737
10675
10648
10671
10722
10771
10803
10823
10840
10847
10834
10804
10773
10762
10770
10782
10785
10776
10767
10765
10774
10794
10823
10853
10872
10865
10836
10805
10793
10801
10810
10803
10784
10774
10784
10803
10810
10798
10787
10800
10837
10868
10864
10825
10782
10766
10784
10815
10833
10830
10813
10797
10789
10790
10796
10801
10798
10785
10771
10768
10780
10791
10779
10744
10709
10709
10750
10806
10837
10827
10795
10773
10774
10788
10798
10805
10815
10827
10826
10802
10767
10750
10764
10795
10812
10804
10783
10772
10776
10782
10781
10780
10793
10817
10826
10803
10761
10733
10744
10784
10820
10830
10817
10797
10780
10765
10751
10749
10764
10783
10778
10741
10692
10670
10695
10748
10791
10805
10799
10792
10789
10780
10761
10745
10749
10776
10806
10818
10810
10796
10790
10790
10787
10780
10780
10791
10804
10799
10775
10749
10748
10780
10825
10851
10838
10792
10744
10721
10735
10771
10802
10807
10782
10749
10727
10726
10736
10745
10749
10752
10757
10757
10745
10731
10736
10775
10833
10877
10876
10836
10785
10753
10744
10746
10745
10745
10754
10770
10778
10771
10759
10761
10789
10831
10865
10875
10863
10844
10831
10828
10833
10844
10859
10872
10870
10843
10791
10732
10691
10690
10730
10789
10830
10829
10791
10745
10724
10737
10762
10773
10755
10723
10700
10697
10711
10729
10742
10753
10762
10767
10763
10754
10747
10748
10751
10748
10740
10737
10751
10775
10789
10774
10734
10696
10685
10708
10746
10770
10763
10733
10703
10700
10740
10825
10943
11071
11189
11285
11363
11435
11514
11597
11671
11716
11715
11657
11535
11359
11155
10960
10806
10699
10625
10563
10513
10493
10524
10597
10677
10727
10731
10703
10676
10670
10684
10708
10729
10743
10748
10746
10737
10722
10705
10689
10677
10675
10692
10729
10773
10803
10805
10781
10752
10734
10733
10743
10758
10779
10801
10816
10810
10782
10749
10734
10743
10761
10764
10746
10723
10724
10756
10804
10838
10840
10814
10778
10750
10736
10734
10742
10759
10780
10796
10801
10793
10783
10780
10789
10807
10824
10835
10834
10823
10805
10787
10781
10797
10832
10869
10888
10881
10859
10842
10841
10853
10869
10884
10902
10922
10935
10927
10901
10881
10890
10929
10969
10979
10958
10935
10941
10978
11019
11037
11027
11012
11009
11017
11026
11030
11038
11059
11087
11105
11106
11095
11085
11082
11080
11076
11080
11099
11129
11149
11141
11110
11076
11056
11044
11025
10992
10955
10930
10924
10925
10921
10909
10894
10878
10861
10842
10826
10818
10817
10812
10800
10790
10795
10813
10825
10811
10773
10738
10734
10764
10804
10825
10815
10780
10735
10690
10653
10634
10639
10665
10696
10716
10719
10715
10714
10717
10723
10731
10746
10764
10774
10764
10738
10715
10715
10738
10761
10765
10748
10725
10710
10705
10704
10707
10721
10747
10769
10766
10735
10694
10673
10684
10710
10727
10722
10709
10707
10722
10746
10764
10770
10765
10756
10746
10734
10726
10722
10722
10718
10707
10693
10687
10696
10717
10739
10752
10754
10750
10745
10743
10742
10736
10720
10693
10667
10654
10666
10698
10736
10764
10772
10761
10732
10688
10640
10608
10611
10648
10692
10708
10688
10656
10649
10681
10726
10747
10730
10699
10686
10700
10719
10716
10689
10665
10667
10692
10716
10718
10701
10684
10679
10681
10677
10667
10664
10674
10685
10680
10653
10623
10620
10652
10700
10732
10731
10707
10684
10674
10671
10660
10634
10607
10595
10605
10629
10655
10673
10683
10692
10700
10705
10702
10689
10671
10657
10655
10668
10688
10701
10696
10673
10645
10632
10643
10671
10694
10697
10682
10663
10654
10662
10677
10687
10682
10665
10644
10631
10627
10630
10637
10645
10657
10674
10690
10691
10672
10639
10613
10613
10638
10667
10682
10679
10671
10668
10671
10668
10659
10657
10672
10700
10715
10695
10647
10603
10594
10619
10652
10665
10651
10630
10619
10627
10645
10666
10687
10709
10728
10735
10727
10712
10700
10703
10719
10741
10758
10761
10743
10709
10671
10646
10644
10665
10695
10717
10720
10700
10664
10625
10598
10593
10608
10627
10636
10630
10616
10609
10620
10648
10680
10703
10700
10669
10618
10572
10551
10560
10585
10602
10602
10592
10586
10585
10580
10563
10549
10556
10593
10639
10663
10650
10612
10576
10561
10568
10591
10627
10682
10753
10829
10905
10987
11089
11215
11344
11450
11516
11549
11565
11567
11540
11463
11330
11159
10975
10803
10655
10534
10442
10379
10346
10341
10363
10409
10465
10514
10542
10548
10547
10558
10590
10631
10656
10647
10609
10567
10549
10568
10607
10638
10640
10616
10586
10567
10565
10576
10593
10616
10642
10661
10659
10634
10603
10590
10609
10653
10698
10719
10704
10657
10600
10560
10559
10598
10653
10687
10681
10647
10619
10621
10649
10677
10684
10669
10647
10634
10631
10634
10641
10652
10663
10666
10657
10644
10643
10661
10691
10712
10714
10704
10694
10694
10707
10727
10748
10765
10770
10760
10739
10720
10714
10722
10735
10749
10765
10785
10807
10818
10811
10786
10760
10750
10766
10805
10855
10900
10925
10923
10900
10875
10870
10892
10934
10975
10997
10990
10958
10917
10888
10886
10910
10940
10953
10945
10931
10931
10951
10975
10981
10963
10936
10915
10901
10886
10867
10852
10849
10852
10841
10808
10763
10726
10710
10707
10704
10698
10699
10716
10739
10749
10735
10703
10670
10647
10635
10629
10623
10617
10610
10598
10581
10564
10552
10550
10559
10580
10607
10626
10619
10585
10541
10518
10529
10560
10580
10574
10557
10557
10588
10631
10661
10663
10645
10623
10603
10587
10576
10579
10596
10607
10592
10554
10517
10512
10543
10583
10602
10594
10580
10581
10601
10620
10625
10617
10614
10625
10641
10647
10631
10601
10575
10568
10579
10595
10601
10592
10579
10575
10583
10593
10589
10573
10563
10574
10602
10619
10602
10555
10508
10495
10521
10564
10600
10616
10622
10624
10625
10618
10604
10587
10571
10556
10542
10532
10530
10537
10544
10544
10540
10547
10568
10593
10603
10588
10563
10547
10552
10568
10575
10565
10546
10530
10523
10523
10524
10528
10540
10560
10579
10582
10566
10540
10523
10525
10542
10557
10556
10544
10536
10542
10555
10554
10528
10491
10474
10497
10545
10585
10592
10575
10564
10580
10611
10626
10601
10548
10499
10479
10486
10503
10514
10521
10531
10545
10551
10538
10509
10486
10489
10523
10569
10601
10603
10578
10546
10523
10518
10527
10541
10552
10556
10551
10539
10530
10530
10543
10561
10570
10562
10542
10521
10506
10498
10491
10487
10492
10514
10544
10564
10557
10527
10494
10480
10494
10525
10550
10555
10540
10517
10499
10492
10497
10512
10533
10554
10570
10575
10572
10573
10587
10612
10629
10621
10584
10540
10513
10515
10533
10546
10545
10538
10534
10535
10534
10530
10532
10551
10581
10606
10612
10601
10585
10568
10549
10527
10517
10535
10582
10632
10656
10648
10629
10620
10622
10621
10603
10580
10566
10563
10557
10535
10509
10498
10507
10523
10529
10526
10529
10541
10552
10546
10529
10525
10543
10563
10559
10530
10505
10508
10527
10524
10484
10438
10438
10493
10559
10576
10533
10475
10455
10484
10527
10549
10546
10539
10541
10536
10510
10469
10442
10454
10500
10561
10619
10675
10738
10810
10893
10983
11079
11170
11247
11311
11383
11471
11555
11580
11498
11313
11079
10865
10699
10568
10448
10339
10262
10236
10255
10296
10341
10384
10425
10461
10488
10508
10522
10526
10513
10485
10458
10452
10470
10495
10509
10513
10524
10550
10577
10576
10543
10504
10492
10514
10545
10551
10526
10497
10493
10516
10545
10555
10540
10518
10509
10517
10532
10538
10530
10515
10509
10521
10545
10565
10571
10568
10569
10582
10594
10590
10569
10551
10557
10587
10615
10616
10589
10558
10546
10551
10557
10555
10558
10581
10621
10655
10660
10635
10604
10590
10598
10618
10635
10641
10636
10627
10624
10640
10677
10716
10731
10710
10670
10647
10662
10704
10740
10750
10740
10735
10746
10765
10774
10772
10769
10780
10806
10837
10865
10881
10884
10868
10840
10817
10820
10853
10896
10920
10910
10875
10841
10827
10834
10852
10871
10883
10885
10874
10853
10831
10820
10822
10829
10828
10812
10783
10749
10717
10694
10685
10692
10706
10710
10692
10655
10617
10594
10591
10602
10613
10617
10613
10600
10578
10551
10528
10519
10529
10547
10560
10558
10540
10514
10492
10483
10490
10512
10535
10547
10540
10517
10493
10485
10497
10526
10557
10580
10587
10579
10557
10529
10506
10499
10514
10543
10567
10567
10542
10512
10503
10529
10576
10612
10611
10577
10535
10513
10516
10528
10534
10536
10547
10576
10602
10598
10554
10492
10455
10468
10517
10564
10580
10568
10551
10547
10558
10577
10594
10609
10615
10602
10563
10513
10480
10484
10519
10557
10570
10556
10533
10520
10522
10532
10544
10558
10572
10576
10559
10528
10502
10499
10518
10538
10544
10538
10531
10529
10527
10520
10517
10534
10570
10594
10577
10516
10451
10429
10463
10524
10570
10584
10578
10571
10561
10539
10507
10484
10493
10529
10563
10568
10542
10510
10495
10497
10503
10505
10504
10508
10516
10521
10520
10521
10532
10552
10564
10558
10537
10518
10520
10538
10556
10557
10538
10516
10510
10525
10545
10549
10527
10495
10481
10501
10544
10579
10584
10561
10533
10517
10515
10514
10509
10509
10521
10536
10537
10515
10484
10468
10481
10515
10547
10563
10564
10554
10536
10513
10496
10500
10532
10576
10604
10599
10567
10530
10510
10511
10527
10547
10563
10566
10553
10529
10512
10513
10529
10541
10532
10506
10483
10479
10495
10518
10535
10541
10540
10528
10510
10495
10501
10536
10585
10620
10620
10588
10546
10514
10498
10494
10499
10515
10542
10571
10591
10594
10582
10560
10539
10528
10534
10553
10569
10562
10530
10497
10491
10522
10568
10597
10598
10586
10582
10590
10595
10584
10567
10566
10586
10606
10601
10569
10538
10540
10578
10627
10651
10638
10599
10558
10530
10517
10513
10515
10521
10530
10541
10553
10560
10554
10536
10516
10509
10522
10543
10550
10531
10496
10472
10473
10494
10512
10519
10522
10533
10551
10559
10546
10519
10506
10523
10558
10582
10573
10539
10508
10499
10506
10508
10495
10481
10491
10535
10601
10671
10745
10839
10962
11097
11203
11256
11272
11294
11352
11434
11490
11479
11398
11271
11121
10955
10774
10599
10461
10383
10353
10341
10328
10322
10344
10397
10458
10500
10517
10526
10543
10562
10566
10546
10518
10501
10506
10521
10534
10539
10539
10535
10525
10510
10505
10522
10558
10592
10600
10580
10555
10550
10573
10608
10629
10619
10582
10537
10510
10513
10544
10580
10598
10592
10577
10575
10592
10612
10614
10594
10573
10573
10596
10623
10632
10621
10604
10599
10607
10617
10619
10612
10601
10595
10599
10618
10648
10675
10681
10661
10632
10620
10635
10666
10687
10691
10694
10709
10734
10745
10723
10679
10647
10648
10676
10706
10719
10719
10725
10747
10778
10807
10832
10860
10893
10922
10925
10892
10832
10776
10757
10790
10862
10934
10969
10955
10916
10887
10892
10922
10948
10946
10918
10888
10876
10887
10906
10919
10920
10913
10908
10911
10918
10921
10908
10875
10833
10801
10788
10787
10777
10749
10715
10700
10716
10750
10773
10770
10749
10729
10716
10699
10668
10626
10594
10588
10601
10614
10613
10598
10583
10578
10583
10590
10589
10575
10551
10527
10515
10520
10540
10563
10580
10588
10596
10604
10611
10610
10605
10605
10613
10620
10613
10590
10566
10557
10565
10579
10588
10591
10595
10599
10593
10568
10541
10539
10574
10629
10663
10652
10605
10555
10532
10542
10568
10595
10611
10615
10608
10594
10585
10586
10593
10595
10586
10575
10579
10605
10637
10651
10636
10604
10581
10579
10593
10610
10620
10625
10623
10610
10584
10553
10530
10528
10546
10568
10583
10585
10581
10582
10594
10614
10632
10633
10608
10567
10533
10527
10553
10591
10615
10613
10594
10577
10570
10569
10571
10577
10589
10598
10586
10544
10495
10474
10503
10566
10614
10613
10567
10516
10496
10513
10544
10565
10573
10584
10605
10625
10622
10588
10538
10500
10493
10513
10542
10565
10575
10573
10561
10541
10521
10509
10510
10522
10537
10549
10559
10570
10578
10578
10567
10552
10541
10537
10533
10520
10503
10496
10508
10534
10557
10565
10561
10553
10549
10549
10551
10561
10582
10603
10606
10579
10541
10520
10534
10564
10576
10550
10502
10468
10469
10496
10528
10551
10568
10582
10588
10579
10559
10543
10540
10547
10550
10545
10544
10554
10562
10547
10505
10465
10464
10513
10578
10609
10588
10540
10507
10507
10524
10534
10530
10524
10529
10537
10535
10522
10512
10524
10555
10587
10604
10601
10588
10572
10552
10531
10518
10525
10551
10578
10585
10571
10557
10567
10609
10657
10677
10654
10600
10552
10537
10557
10590
10609
10603
10581
10563
10556
10556
10550
10537
10524
10527
10544
10561
10557
10529
10490
10465
10468
10492
10516
10525
10521
10513
10513
10518
10522
10521
10520
10523
10531
10537
10537
10535
10535
10539
10537
10518
10485
10454
10445
10461
10487
10503
10505
10502
10506
10511
10503
10477
10450
10450
10492
10562
10631
10681
10717
10764
10841
10946
11065
11183
11291
11383
11447
11474
11457
11405
11324
11219
11084
10915
10724
10538
10388
10295
10259
10267
10299
10336
10368
10395
10416
10434
10447
10456
10465
10478
10494
10508
10507
10487
10457
10439
10449
10488
10534
10564
10562
10535
10501
10480
10478
10492
10511
10530
10545
10557
10563
10557
10541
10518
10499
10493
10502
10520
10534
10534
10524
10514
10514
10525
10539
10546
10548
10553
10566
10582
10590
10583
10565
10549
10542
10545
10553
10566
10588
10614
10630
10621
10589
10557
10552
10580
10617
10629
10601
10552
10514
10510
10537
10571
10594
10603
10607
10617
10636
10659
10676
10680
10674
10665
10665
10680
10705
10729
10743
10749
10753
10755
10753
10746
10742
10752
10780
10813
10833
10830
10813
10794
10783
10782
10789
10803
10823
10842
10850
10849
10852
10874
10907
10930
10918
10871
10814
10777
10771
10787
10811
10833
10846
10844
10824
10789
10753
10732
10726
10721
10701
10670
10641
10627
10625
10622
10612
10596
10582
10572
10565
10560
10560
10562
10562
10556
10549
10554
10573
10592
10590
10556
10506
10470
10463
10482
10512
10542
10568
10586
10588
10568
10530
10492
10466
10454
10447
10441
10441
10456
10483
10507
10519
10519
10515
10511
10502
10489
10478
10485
10513
10550
10575
10579
10570
10562
10557
10549
10529
10500
10476
10468
10477
10493
10506
10513
10515
10518
10527
10541
10557
10565
10558
10537
10517
10511
10521
10532
10526
10496
10458
10435
10442
10473
10508
10530
10535
10530
10520
10504
10485
10471
10475
10500
10529
10536
10510
10469
10445
10456
10492
10523
10530
10519
10510
10512
10519
10518
10511
10509
10512
10505
10475
10433
10412
10437
10496
10544
10548
10513
10473
10455
10455
10451
10442
10442
10466
10501
10519
10507
10481
10470
10477
10483
10469
10445
10440
10467
10500
10503
10465
10415
10394
10415
10455
10484
10494
10498
10511
10526
10530
10520
10508
10505
10507
10503
10484
10458
10437
10432
10443
10461
10477
10479
10461
10427
10397
10395
10427
10474
10508
10513
10494
10469
10447
10432
10423
10429
10451
10477
10487
10471
10445
10432
10444
10470
10490
10497
10501
10508
10510
10493
10457
10423
10415
10436
10464
10480
10477
10467
10459
10452
10444
10438
10446
10470
10499
10516
10512
10495
10475
10458
10444
10437
10443
10461
10481
10491
10487
10480
10483
10493
10500
10494
10479
10469
10466
10464
10457
10452
10461
10482
10499
10492
10461
10430
10425
10448
10479
10490
10473
10441
10411
10396
10402
10429
10475
10523
10552
10544
10504
10461
10448
10478
10536
10590
10615
10605
10572
10533
10500
10480
10472
10476
10487
10497
10499
10487
10462
10436
10424
10430
10446
10459
10462
10457
10454
10457
10460
10456
10450
10451
10463
10474
10467
10437
10398
10377
10385
10413
10438
10444
10436
10426
10425
10432
10439
10440
10432
10419
10402
10383
10366
10355
10356
10372
10409
10467
10539
10615
10684
10747
10814
10895
10991
11096
11200
11298
11386
11450
11471
11429
11322
11165
10985
10808
10649
10512
10394
10294
10215
10167
10161
10195
10250
10298
10322
10329
10346
10388
10442
10480
10482
10458
10435
10430
10433
10425
10401
10379
10382
10414
10450
10465
10453
10428
10413
10416
10435
10460
10483
10496
10489
10463
10432
10418
10437
10475
10505
10503
10475
10443
10426
10425
10431
10436
10445
10459
10470
10465
10447
10438
10458
10500
10530
10515
10458
10399
10385
10423
10484
10526
10534
10524
10514
10507
10493
10470
10454
10464
10498
10534
10550
10545
10537
10540
10549
10551
10544
10539
10549
10570
10583
10582
10573
10576
10595
10619
10633
10634
10634
10640
10648
10650
10645
10642
10650
10666
10685
10701
10721
10743
10757
10751
10731
10716
10724
10748
10762
10750
10726
10721
10750
10793
10811
10791
10750
10725
10734
10765
10792
10801
10793
10775
10753
10730
10716
10716
10727
10728
10706
10663
10617
10583
10562
10545
10527
10513
10509
10509
10501
10484
10466
10459
10459
10453
10435
10414
10411
10430
10457
10469
10460
10444
10438
10445
10452
10448
10431
10413
10402
10399
10398
10399
10407
10424
10444
10453
10442
10412
10376
10353
10353
10373
10398
10407
10394
10372
10361
10373
10403
10432
10449
10453
10455
10457
10456
10447
10434
10429
10436
10447
10450
10439
10417
10394
10378
10375
10389
10414
10437
10440
10418
10388
10374
10389
10420
10445
10450
10442
10435
10430
10416
10388
10363
10365
10400
10447
10473
10466
10442
10425
10420
10413
10397
10379
10381
10408
10439
10444
10414
10371
10346
10352
10375
10390
10385
10367
10353
10356
10375
10399
10416
10419
10410
10396
10386
10389
10406
10429
10444
10440
10416
10382
10348
10328
10324
10336
10357
10381
10402
10414
10410
10390
10364
10349
10355
10379
10402
10408
10394
10374
10363
10363
10366
10360
10347
10338
10341
10352
10365
10375
10387
10405
10422
10423
10401
10367
10342
10343
10366
10391
10401
10389
10362
10332
10309
10299
10308
10334
10368
10391
10392
10375
10359
10359
10373
10381
10369
10342
10322
10326
10347
10361
10354
10333
10324
10340
10370
10389
10382
10358
10338
10331
10331
10326
10320
10324
10345
10371
10381
10367
10342
10329
10339
10361
10376
10373
10357
10343
10340
10345
10353
10355
10350
10339
10326
10317
10314
10316
10319
10323
10329
10339
10350
10351
10336
10312
10298
10310
10347
10387
10403
10385
10344
10308
10297
10317
10350
10376
10381
10366
10343
10330
10332
10347
10365
10379
10388
10396
10406
10417
10421
10414
10397
10380
10375
10390
10418
10439
10434
10405
10372
10361
10381
10413
10429
10418
10389
10363
10352
10347
10335
10317
10303
10300
10301
10293
10272
10254
10257
10285
10323
10350
10355
10343
10327
10316
10312
10318
10331
10345
10349
10332
10300
10269
10258
10273
10302
10325
10329
10316
10299
10296
10312
10334
10340
10318
10278
10247
10249
10284
10333
10384
10444
10532
10653
10784
10892
10964
11015
11076
11161
11255
11328
11355
11320
11221
11059
10852
10633
10443
10304
10210
10141
10089
10063
10071
10107
10148
10177
10197
10227
10273
10320
10342
10329
10296
10275
10283
10315
10343
10346
10321
10288
10272
10285
10316
10341
10345
10331
10312
10299
10292
10288
10298
10331
10383
10424
10421
10365
10291
10248
10260
10307
10347
10360
10355
10354
10361
10367
10362
10356
10360
10370
10368
10342
10304
10283
10294
10330
10368
10394
10407
10406
10386
10348
10310
10302
10339
10402
10450
10458
10432
10402
10387
10386
10390
10397
10413
10438
10459
10465
10454
10440
10432
10427
10421
10417
10428
10459
10495
10517
10519
10512
10516
10534
10554
10564
10563
10559
10560
10567
10584
10615
10656
10689
10692
10661
10618
10595
10605
10632
10653
10656
10654
10659
10670
10674
10665
10655
10660
10682
10704
10706
10683
10651
10629
10624
10630
10633
10626
10606
10581
10558
10542
10533
10525
10512
10491
10466
10443
10424
10409
10403
10408
10419
10421
10399
10357
10319
10308
10329
10362
10383
10385
10377
10369
10358
10335
10303
10276
10267
10276
10290
10299
10308
10322
10336
10336
10314
10283
10267
10282
10317
10347
10355
10340
10314
10293
10288
10301
10328
10352
10357
10334
10301
10285
10299
10331
10349
10336
10304
10283
10293
10325
10354
10361
10348
10328
10312
10303
10297
10292
10294
10306
10327
10350
10365
10361
10336
10303
10281
10284
10309
10340
10358
10357
10346
10336
10327
10317
10304
10300
10309
10328
10340
10332
10309
10287
10282
10300
10329
10353
10362
10353
10331
10307
10291
10288
10296
10307
10319
10331
10341
10344
10333
10308
10282
10271
10279
10294
10304
10303
10298
10297
10303
10312
10321
10334
10346
10348
10326
10283
10244
10231
10255
10297
10331
10339
10321
10290
10262
10253
10273
10313
10351
10357
10325
10277
10246
10247
10264
10272
10266
10265
10286
10319
10337
10325
10301
10298
10325
10356
10354
10311
10257
10230
10239
10263
10278
10283
10291
10309
10323
10316
10289
10260
10251
10263
10287
10317
10347
10372
10379
10360
10324
10295
10291
10304
10310
10295
10272
10265
10283
10310
10321
10313
10304
10309
10322
10321
10296
10268
10267
10299
10338
10346
10312
10260
10231
10245
10291
10338
10361
10356
10332
10305
10284
10274
10278
10292
10311
10326
10333
10333
10329
10326
10321
10318
10320
10328
10343
10354
10352
10336
10313
10301
10310
10336
10362
10371
10360
10342
10335
10346
10370
10388
10391
10380
10364
10352
10350
10357
10376
10403
10427
10434
10414
10375
10335
10310
10305
10315
10329
10343
10351
10349
10333
10307
10285
10279
10293
10316
10333
10342
10349
10358
10363
10355
10332
10304
10284
10272
10262
10247
10232
10230
10245
10270
10290
10301
10310
10319
10326
10321
10303
10287
10286
10300
10313
10312
10299
10296
10317
10362
10417
10480
10559
10667
10793
10912
11000
11064
11128
11214
11309
11370
11358
11257
11088
10886
10681
10496
10346
10236
10163
10115
10079
10058
10062
10098
10155
10212
10253
10278
10298
10319
10331
10324
10303
10285
10292
10321
10351
10358
10338
10310
10298
10313
10345
10373
10383
10374
10354
10335
10328
10334
10352
10369
10371
10353
10325
10307
10318
10359
10409
10438
10427
10382
10333
10310
10322
10356
10384
10390
10380
10370
10370
10380
10387
10389
10393
10407
10427
10443
10446
10434
10416
10398
10382
10369
10367
10380
10406
10431
10441
10437
10434
10446
10468
10487
10492
10487
10485
10489
10490
10481
10466
10464
10488
10532
10574
10596
10594
10578
10559
10547
10550
10571
10603
10630
10635
10617
10595
10593
10614
10647
10675
10695
10712
10728
10733
10724
10712
10716
10743
10769
10762
10715
10657
10630
10649
10697
10742
10769
10783
10790
10781
10745
10688
10638
10619
10632
10652
10652
10627
10592
10564
10549
10546
10553
10567
10578
10571
10540
10497
10463
10446
10437
10419
10393
10377
10386
10416
10442
10448
10437
10427
10425
10422
10403
10368
10333
10320
10335
10366
10393
10401
10384
10352
10319
10304
10317
10355
10399
10426
10425
10402
10369
10342
10330
10339
10368
10408
10439
10444
10417
10378
10353
10361
10399
10447
10484
10498
10486
10452
10405
10356
10323
10318
10343
10386
10427
10449
10445
10420
10389
10370
10374
10397
10424
10438
10432
10416
10404
10406
10414
10416
10408
10398
10401
10417
10433
10430
10408
10384
10382
10404
10430
10432
10403
10368
10357
10381
10417
10435
10423
10398
10382
10380
10378
10365
10351
10356
10386
10417
10424
10399
10365
10351
10368
10397
10418
10420
10412
10401
10392
10383
10383
10396
10419
10436
10431
10403
10367
10344
10340
10351
10369
10391
10409
10415
10402
10378
10358
10353
10359
10361
10356
10356
10370
10394
10406
10395
10371
10363
10382
10412
10423
10404
10370
10350
10354
10373
10389
10396
10403
10413
10420
10413
10390
10363
10347
10349
10363
10382
10398
10405
10403
10396
10395
10404
10419
10429
10421
10398
10371
10355
10356
10368
10384
10394
10389
10366
10334
10312
10317
10352
10400
10435
10444
10433
10413
10396
10381
10370
10366
10372
10385
10394
10395
10393
10399
10414
10426
10423
10406
10386
10373
10370
10369
10370
10376
10390
10404
10406
10391
10369
10359
10370
10393
10417
10432
10439
10441
10440
10432
10416
10399
10390
10395
10406
10411
10403
10383
10368
10374
10409
10460
10509
10537
10541
10526
10502
10477
10459
10453
10463
10479
10484
10466
10435
10411
10405
10410
10404
10382
10360
10359
10383
10409
10411
10389
10367
10367
10387
10407
10407
10390
10369
10358
10361
10378
10409
10444
10461
10443
10393
10342
10323
10343
10375
10390
10379
10361
10354
10356
10356
10347
10342
10354
10382
10408
10424
10435
10458
10503
10567
10645
10742
10864
11002
11135
11242
11322
11383
11429
11447
11412
11313
11159
10971
10773
10585
10423
10299
10217
10170
10149
10151
10176
10216
10257
10288
10316
10352
10398
10434
10441
10421
10396
10390
10397
10398
10381
10365
10373
10404
10429
10420
10386
10364
10382
10426
10454
10444
10412
10392
10398
10415
10419
10411
10410
10428
10456
10470
10461
10441
10431
10436
10446
10448
10438
10424
10415
10418
10437
10470
10500
10506
10478
10431
10398
10406
10451
10501
10525
10516
10493
10477
10475
10481
10490
10498
10501
10496
10482
10470
10471
10490
10513
10525
10521
10514
10520
10541
10564
10571
10560
10545
10546
10569
10603
10626
10624
10598
10566
10550
10566
10610
10661
10697
10708
10700
10686
10676
10673
10679
10694
10716
10739
10751
10750
10744
10748
10768
10793
10808
10805
10789
10775
10767
10762
10755
10750
10757
10777
10801
10807
10783
10735
10686
10659
10663
10683
10698
10688
10654
10612
10580
10567
10569
10577
10582
10576
10558
10530
10496
10469
10459
10468
10489
10505
10508
10497
10481
10462
10442
10418
10399
10395
10411
10437
10452
10446
10425
10407
10407
10420
10433
10433
10419
10400
10381
10364
10353
10358
10383
10419
10438
10420
10376
10345
10360
10421
10485
10508
10484
10446
10432
10446
10462
10451
10417
10386
10381
10396
10411
10417
10420
10431
10445
10452
10445
10438
10444
10456
10453
10426
10392
10378
10397
10429
10447
10444
10435
10437
10443
10437
10419
10407
10420
10445
10449
10415
10366
10345
10373
10426
10455
10437
10384
10337
10323
10345
10388
10435
10464
10462
10429
10385
10364
10385
10430
10466
10468
10445
10423
10415
10413
10399
10377
10366
10376
10395
10401
10385
10363
10354
10362
10370
10368
10359
10358
10371
10388
10395
10392
10385
10384
10388
10393
10395
10393
10383
10358
10325
10308
10327
10382
10440
10465
10444
10397
10361
10354
10367
10380
10381
10374
10365
10356
10345
10339
10346
10369
10397
10410
10397
10369
10346
10346
10367
10388
10394
10383
10371
10374
10387
10391
10370
10332
10307
10321
10368
10411
10417
10381
10337
10322
10345
10382
10399
10384
10352
10328
10327
10348
10377
10401
10408
10395
10365
10331
10309
10309
10330
10365
10404
10433
10437
10408
10358
10316
10309
10340
10380
10396
10383
10364
10364
10385
10406
10407
10391
10378
10375
10372
10362
10352
10360
10392
10425
10432
10406
10371
10355
10360
10367
10358
10340
10340
10371
10422
10469
10493
10493
10475
10449
10418
10392
10382
10388
10400
10402
10387
10364
10347
10341
10346
10358
10377
10396
10403
10389
10356
10323
10309
10320
10339
10354
10362
10368
10376
10375
10358
10333
10319
10332
10367
10398
10401
10377
10347
10331
10335
10344
10342
10325
10305
10295
10298
10310
10325
10341
10364
10397
10437
10480
10526
10586
10670
10777
10893
10997
11081
11156
11230
11300
11338
11320
11234
11097
10935
10765
10596
10434
10290
10187
10136
10134
10161
10190
10204
10203
10202
10217
10253
10302
10345
10370
10375
10370
10368
10372
10382
10393
10401
10399
10384
10360
10341
10343
10362
10382
10382
10366
10355
10368
10396
10410
10395
10367
10360
10387
10420
10419
10365
10291
10247
10260
10319
10383
10421
10424
10404
10379
10364
10368
10391
10421
10437
10429
10407
10388
10386
10398
10413
10427
10443
10459
10466
10455
10430
10410
10411
10428
10443
10443
10432
10424
10423
10425
10424
10430
10448
10477
10499
10505
10502
10507
10526
10543
10542
10527
10525
10553
10599
10626
10612
10568
10529
10524
10551
10589
10616
10630
10638
10648
10664
10683
10700
10709
10703
10683
10663
10661
10683
10715
10739
10747
10744
10735
10720
10693
10662
10650
10675
10731
10786
10806
10780
10726
10672
10634
10611
10597
10590
10589
10589
10578
10552
10517
10486
10469
10461
10457
10452
10448
10445
10438
10422
10401
10386
10388
10404
10419
10417
10396
10370
10356
10357
10366
10369
10360
10345
10331
10324
10324
10329
10341
10357
10373
10384
10386
10384
10381
10376
10362
10336
10308
10296
10307
10333
10355
10359
10352
10350
10365
10388
10400
10388
10358
10327
10310
10313
10332
10358
10381
10392
10384
10361
10337
10330
10349
10383
10409
10409
10382
10345
10324
10333
10364
10394
10401
10384
10361
10349
10353
10358
10346
10323
10307
10317
10347
10371
10367
10341
10318
10319
10344
10376
10397
10403
10393
10370
10337
10309
10305
10333
10374
10395
10378
10339
10310
10309
10322
10324
10309
10300
10319
10362
10395
10388
10344
10299
10285
10308
10343
10364
10360
10341
10316
10292
10273
10266
10278
10305
10329
10330
10308
10282
10275
10294
10324
10339
10322
10286
10257
10258
10291
10336
10367
10373
10359
10339
10324
10313
10301
10292
10290
10299
10314
10325
10326
10319
10312
10310
10309
10306
10300
10292
10284
10277
10271
10269
10273
10284
10298
10309
10314
10314
10312
10309
10309
10309
10309
10305
10299
10297
10303
10316
10326
10325
10313
10301
10302
10318
10336
10344
10337
10321
10307
10297
10290
10286
10290
10303
10319
10329
10334
10344
10362
10376
10367
10326
10272
10237
10243
10283
10330
10360
10368
10361
10347
10332
10321
10322
10338
10360
10374
10371
10357
10346
10344
10346
10343
10338
10340
10352
10363
10357
10332
10305
10297
10313
10340
10361
10369
10364
10350
10323
10284
10246
10229
10246
10286
10318
10316
10280
10236
10212
10223
10258
10297
10324
10334
10335
10333
10332
10329
10322
10311
10297
10282
10265
10247
10233
10230
10243
10266
10285
10290
10281
10273
10283
10318
10377
10453
10542
10638
10728
10801
10857
10916
11004
11129
11261
11346
11340
11234
11062
10872
10696
10541
10401
10275
10173
10104
10068
10060
10072
10103
10148
10197
10239
10265
10277
10282
10286
10285
10280
10279
10292
10319
10347
10353
10329
10289
10261
10261
10287
10321
10344
10349
10341
10327
10312
10300
10295
10299
10311
10324
10329
10326
10318
10317
10329
10353
10379
10392
10380
10342
10295
10263
10265
10298
10341
10374
10386
10381
10370
10360
10353
10351
10359
10380
10405
10421
10418
10398
10371
10349
10339
10344
10362
10385
10399
10395
10377
10364
10375
10408
10445
10465
10465
10459
10457
10460
10461
10459
10467
10493
10526
10546
10541
10522
10512
10521
10536
10544
10544
10550
10569
10591
10601
10596
10592
10606
10633
10655
10659
10652
10649
10652
10651
10637
10625
10640
10684
10730
10744
10718
10681
10667
10682
10703
10707
10692
10674
10664
10657
10640
10619
10609
10615
10622
10603
10552
10493
10456
10453
10470
10483
10484
10479
10472
10456
10429
10398
10379
10385
10408
10427
10428
10408
10381
10361
10358
10372
10396
10416
10419
10400
10371
10352
10353
10369
10383
10385
10374
10355
10333
10311
10297
10304
10334
10371
10391
10379
10343
10311
10304
10324
10358
10391
10416
10429
10425
10403
10372
10348
10343
10355
10373
10387
10399
10409
10415
10410
10391
10371
10359
10360
10364
10365
10366
10377
10405
10439
10467
10477
10472
10457
10434
10409
10390
10388
10404
10426
10433
10420
10395
10374
10366
10372
10386
10406
10427
10439
10433
10410
10389
10388
10411
10436
10441
10419
10385
10359
10349
10349
10353
10362
10384
10415
10443
10454
10451
10444
10444
10446
10439
10417
10387
10364
10363
10385
10421
10458
10484
10487
10468
10433
10401
10386
10391
10407
10420
10425
10424
10424
10430
10436
10435
10423
10406
10395
10399
10419
10442
10455
10452
10436
10414
10396
10388
10394
10414
10443
10466
10467
10444
10414
10397
10404
10425
10440
10436
10422
10414
10422
10438
10454
10467
10484
10505
10519
10511
10481
10445
10424
10425
10435
10434
10417
10394
10383
10393
10422
10460
10498
10529
10544
10537
10509
10477
10457
10459
10480
10505
10521
10524
10515
10500
10479
10454
10433
10425
10438
10466
10497
10514
10512
10501
10500
10515
10536
10544
10530
10503
10488
10501
10535
10572
10597
10610
10620
10631
10630
10607
10567
10532
10520
10528
10537
10534
10520
10513
10517
10525
10521
10507
10497
10504
10519
10524
10508
10485
10476
10486
10501
10505
10502
10514
10550
10589
10598
10566
10520
10497
10506
10520
10509
10480
10471
10507
10568
10604
10584
10529
10491
10498
10527
10533
10500
10456
10451
10502
10589
10677
10751
10825
10915
11022
11129
11225
11309
11386
11453
11499
11511
11481
11407
11287
11127
10942
10760
10605
10486
10403
10354
10338
10356
10393
10430
10452
10462
10472
10494
10524
10551
10570
10585
10604
10623
10630
10616
10588
10561
10553
10570
10599
10623
10629
10618
10600
10587
10586
10596
10612
10628
10641
10647
10639
10619
10594
10581
10587
10607
10628
10642
10654
10670
10690
10704
10705
10698
10700
10711
10716
10697
10661
10637
10650
10696
10738
10740
10701
10653
10629
10636
10661
10685
10707
10732
10758
10770
10759
10734
10718
10729
10758
10784
10789
10773
10755
10749
10764
10790
10813
10825
10824
10817
10814
10822
10841
10868
10896
10917
10922
10909
10885
10868
10875
10907
10948
10980
10995
11002
11012
11025
11030
11021
11008
11007
11020
11033
11035
11031
11037
11061
11092
11109
11103
11087
11074
11066
11054
11032
11012
11009
11025
11041
11043
11032
11021
11012
10994
10956
10907
10873
10872
10894
10911
10903
10876
10849
10836
10835
10835
10832
10826
10813
10791
10766
10750
10752
10764
10766
10748
10720
10702
10703
10716
10727
10736
10752
10771
10774
10742
10685
10639
10635
10672
10720
10746
10746
10735
10731
10737
10746
10753
10761
10769
10768
10752
10727
10711
10716
10737
10756
10761
10755
10744
10735
10728
10727
10733
10744
10750
10740
10719
10701
10702
10722
10749
10766
10769
10767
10765
10765
10765
10764
10763
10760
10760
10766
10783
10806
10819
10807
10773
10739
10728
10741
10758
10760
10748
10741
10749
10767
10775
10769
10760
10763
10775
10780
10769
10752
10748
10762
10784
10799
10806
10812
10819
10816
10797
10769
10754
10766
10793
10809
10797
10767
10743
10741
10753
10764
10765
10760
10761
10767
10770
10761
10743
10726
10724
10742
10773
10804
10821
10821
10810
10797
10787
10779
10769
10759
10752
10751
10750
10744
10735
10737
10755
10781
10792
10775
10741
10718
10726
10759
10790
10799
10790
10778
10771
10765
10749
10731
10729
10755
10799
10833
10837
10818
10800
10803
10821
10831
10816
10781
10743
10719
10712
10717
10731
10756
10786
10811
10813
10790
10760
10743
10749
10761
10761
10744
10729
10734
10760
10789
10802
10802
10806
10823
10842
10841
10815
10783
10768
10776
10793
10802
10800
10794
10787
10773
10747
10726
10731
10768
10816
10846
10848
10837
10837
10846
10846
10829
10809
10811
10840
10875
10888
10878
10864
10864
10870
10864
10840
10816
10809
10813
10806
10777
10745
10739
10762
10787
10782
10750
10725
10735
10774
10809
10817
10804
10789
10779
10767
10749
10744
10772
10827
10871
10863
10803
10727
10676
10663
10670
10680
10696
10730
10778
10814
10813
10777
10734
10708
10706
10718
10736
10761
10796
10834
10870
10909
10970
11062
11175
11280
11358
11419
11488
11581
11684
11758
11772
11713
11586
11405
11190
10973
10792
10672
10613
10587
10564
10533
10511
10519
10563
10626
10683
10720
10737
10743
10745
10742
10735
10726
10723
10728
10739
10750
10756
10756
10751
10744
10738
10741
10763
10800
10831
10827
10776
10702
10655
10671
10741
10816
10844
10814
10759
10723
10730
10762
10791
10799
10790
10777
10771
10772
10781
10795
10807
10809
10798
10784
10781
10794
10813
10827
10830
10830
10833
10834
10821
10792
10762
10753
10770
10805
10836
10855
10860
10853
10839
10821
10810
10817
10839
10862
10872
10865
10854
10849
10854
10863
10872
10884
10900
10917
10933
10947
10962
10976
10982
10978
10980
11003
11042
11069
11052
10998
10951
10952
11002
11058
11080
11069
11060
11075
11095
11085
11043
11009
11025
11091
11158
11182
11161
11129
11114
11110
11097
11075
11064
11079
11103
11108
11085
11062
11063
11081
11074
11013
10920
10845
10827
10853
10881
10882
10863
10847
10844
10845
10835
10817
10804
10804
10806
10793
10765
10733
10715
10720
10739
10757
10763
10758
10750
10751
10760
10764
10742
10691
10633
10605
10625
10678
10723
10727
10696
10664
10659
10682
10711
10727
10732
10737
10746
10752
10746
10730
10716
10715
10722
10727
10720
10705
10690
10687
10695
10709
10719
10717
10703
10690
10691
10712
10741
10759
10750
10715
10674
10647
10650
10680
10724
10764
10787
10786
10766
10738
10714
10695
10680
10661
10643
10634
10639
10659
10681
10696
10702
10701
10699
10698
10696
10693
10689
10685
10680
10673
10667
10665
10668
10675
10678
10672
10656
10638
10631
10637
10652
10661
10661
10658
10665
10690
10724
10747
10744
10715
10669
10623
10586
10564
10564
10587
10626
10665
10687
10686
10668
10643
10621
10609
10610
10627
10655
10676
10675
10648
10611
10587
10584
10597
10611
10614
10606
10594
10582
10577
10585
10610
10644
10670
10675
10657
10628
10598
10579
10574
10589
10618
10645
10648
10621
10584
10568
10591
10631
10651
10632
10591
10561
10558
10565
10561
10542
10530
10545
10580
10610
10618
10610
10606
10609
10610
10598
10578
10565
10568
10575
10573
10562
10558
10575
10606
10634
10645
10639
10628
10622
10620
10620
10618
10614
10604
10582
10553
10533
10541
10578
10627
10657
10651
10611
10561
10526
10517
10529
10550
10571
10592
10614
10634
10643
10635
10617
10606
10616
10644
10671
10680
10669
10650
10637
10631
10625
10614
10603
10600
10603
10604
10598
10589
10586
10589
10587
10573
10551
10539
10542
10553
10552
10534
10515
10513
10536
10565
10577
10561
10533
10520
10542
10599
10663
10697
10675
10604
10520
10470
10477
10527
10577
10594
10577
10548
10531
10530
10534
10534
10532
10530
10526
10514
10499
10499
10536
10612
10709
10795
10857
10902
10949
11015
11102
11206
11322
11440
11546
11609
11598
11499
11333
11144
10975
10837
10708
10561
10397
10257
10189
10211
10291
10375
10429
10458
10483
10513
10536
10536
10521
10515
10534
10565
10582
10573
10553
10546
10557
10569
10560
10532
10508
10507
10522
10534
10528
10512
10504
10519
10547
10571
10574
10555
10525
10500
10493
10511
10553
10602
10640
10651
10630
10592
10559
10550
10570
10605
10628
10620
10582
10540
10522
10540
10573
10594
10587
10570
10567
10591
10624
10640
10625
10596
10580
10588
10612
10628
10621
10594
10563
10549
10561
10592
10626
10644
10636
10613
10594
10596
10617
10644
10663
10673
10684
10703
10725
10738
10737
10730
10730
10742
10760
10775
10783
10787
10788
10783
10774
10768
10777
10804
10836
10858
10862
10856
10855
10864
10873
10871
10859
10844
10835
10833
10833
10836
10849
10869
10880
10863
10817
10764
10736
10742
10763
10769
10748
10715
10690
10683
10680
10667
10646
10631
10634
10651
10664
10661
10645
10624
10605
10587
10566
10542
10520
10506
10506
10516
10529
10536
10529
10511
10492
10484
10489
10496
10492
10481
10474
10479
10487
10482
10458
10431
10422
10442
10477
10506
10519
10517
10506
10486
10457
10429
10419
10436
10469
10494
10498
10494
10501
10526
10552
10556
10529
10485
10449
10433
10436
10450
10468
10487
10499
10499
10486
10467
10450
10443
10448
10464
10492
10522
10543
10544
10527
10506
10494
10495
10503
10511
10519
10527
10525
10501
10459
10421
10417
10449
10488
10496
10460
10410
10391
10423
10484
10530
10534
10501
10459
10431
10425
10432
10449
10471
10495
10509
10506
10488
10468
10461
10472
10487
10492
10480
10457
10438
10431
10434
10440
10445
10453
10471
10494
10510
10502
10471
10431
10405
10403
10421
10441
10452
10450
10442
10432
10425
10426
10439
10462
10482
10485
10461
10421
10390
10387
10415
10454
10480
10479
10460
10437
10425
10424
10428
10430
10435
10446
10461
10468
10455
10425
10395
10389
10410
10441
10457
10444
10413
10385
10375
10378
10389
10409
10443
10491
10531
10535
10495
10435
10394
10395
10427
10458
10460
10433
10402
10387
10395
10416
10437
10449
10449
10436
10413
10385
10364
10361
10379
10410
10446
10475
10491
10489
10469
10437
10407
10390
10390
10401
10411
10415
10412
10408
10413
10429
10456
10484
10499
10488
10456
10424
10417
10438
10470
10486
10480
10468
10473
10496
10517
10512
10482
10450
10435
10437
10439
10430
10414
10405
10405
10408
10410
10419
10438
10458
10458
10429
10387
10364
10374
10399
10409
10396
10378
10378
10398
10418
10423
10417
10415
10419
10417
10398
10371
10359
10369
10389
10402
10405
10410
10421
10422
10398
10358
10330
10331
10351
10361
10354
10353
10385
10451
10519
10570
10618
10699
10820
10947
11040
11096
11152
11240
11341
11399
11371
11260
11105
10938
10769
10604
10465
10377
10339
10313
10265
10196
10148
10156
10215
10283
10323
10334
10339
10355
10378
10395
10405
10414
10424
10424
10407
10381
10364
10368
10386
10402
10409
10409
10403
10391
10377
10374
10390
10418
10435
10426
10399
10382
10389
10408
10413
10395
10375
10377
10402
10425
10428
10415
10409
10417
10427
10422
10407
10404
10427
10460
10474
10459
10430
10414
10418
10424
10416
10398
10388
10398
10421
10439
10448
10458
10477
10499
10512
10508
10498
10493
10494
10492
10483
10474
10477
10491
10505
10506
10500
10501
10519
10542
10554
10548
10533
10529
10545
10573
10602
10623
10637
10645
10643
10632
10617
10613
10629
10658
10683
10690
10683
10675
10677
10687
10697
10699
10699
10707
10727
10748
10751
10729
10688
10651
10640
10657
10687
10708
10708
10691
10669
10655
10646
10634
10613
10591
10577
10575
10575
10568
10553
10539
10534
10534
10521
10486
10439
10404
10397
10416
10440
10452
10446
10427
10400
10368
10341
10333
10353
10391
10418
10410
10370
10327
10313
10333
10372
10408
10428
10431
10415
10380
10336
10303
10301
10334
10379
10408
10406
10381
10355
10339
10338
10347
10362
10379
10390
10385
10368
10351
10346
10355
10366
10365
10352
10340
10343
10364
10395
10420
10431
10427
10415
10399
10383
10366
10346
10326
10315
10320
10339
10360
10367
10358
10343
10341
10357
10385
10410
10422
10419
10404
10381
10357
10343
10347
10367
10388
10398
10394
10385
10380
10380
10382
10389
10407
10433
10448
10432
10382
10323
10289
10295
10327
10359
10373
10367
10351
10331
10316
10319
10346
10388
10418
10417
10386
10351
10335
10339
10351
10365
10385
10411
10423
10396
10329
10260
10245
10303
10398
10466
10469
10417
10351
10306
10289
10297
10327
10373
10418
10435
10410
10358
10319
10321
10356
10394
10408
10395
10372
10357
10354
10360
10371
10382
10389
10387
10373
10355
10339
10333
10338
10351
10368
10377
10364
10325
10273
10241
10253
10305
10365
10400
10400
10383
10372
10369
10365
10352
10338
10340
10358
10380
10386
10373
10354
10345
10348
10354
10354
10348
10344
10347
10352
10355
10353
10353
10359
10368
10375
10375
10372
10368
10371
10379
10389
10393
10385
10361
10330
10308
10307
10325
10349
10363
10363
10358
10360
10375
10390
10396
10387
10375
10369
10374
10384
10392
10399
10409
10426
10445
10451
10436
10405
10374
10358
10359
10367
10371
10368
10364
10369
10375
10369
10343
10306
10285
10297
10336
10371
10373
10339
10293
10264
10264
10283
10304
10321
10337
10357
10378
10392
10394
10384
10362
10334
10309
10301
10317
10343
10348
10312
10250
10203
10209
10261
10315
10329
10304
10284
10312
10396
10502
10592
10661
10728
10814
10915
11011
11094
11173
11258
11341
11386
11356
11240
11059
10852
10652
10478
10338
10234
10164
10122
10098
10091
10105
10141
10196
10252
10293
10310
10306
10294
10285
10289
10306
10332
10353
10357
10340
10309
10288
10294
10330
10379
10414
10419
10394
10355
10318
10294
10285
10291
10314
10347
10374
10381
10364
10339
10330
10350
10387
10419
10425
10407
10379
10356
10344
10341
10344
10353
10364
10372
10374
10374
10379
10391
10402
10403
10393
10382
10379
10386
10396
10406
10418
10439
10461
10471
10458
10428
10399
10385
10386
10396
10411
10432
10460
10485
10495
10486
10469
10463
10476
10506
10539
10564
10569
10550
10510
10468
10451
10476
10536
10600
10638
10641
10629
10625
10637
10656
10671
10684
10698
10716
10725
10718
10701
10689
10692
10702
10702
10680
10650
10633
10645
10683
10722
10744
10739
10717
10692
10677
10671
10665
10653
10636
10623
10622
10631
10635
10617
10575
10524
10490
10486
10504
10520
10517
10493
10462
10441
10437
10444
10451
10448
10435
10415
10396
10383
10375
10370
10369
10369
10370
10370
10367
10363
10365
10378
10400
10415
10409
10374
10324
10284
10271
10285
10311
10334
10348
10356
10360
10356
10342
10326
10323
10344
10381
10410
10411
10386
10353
10332
10325
10324
10322
10326
10349
10389
10425
10428
10393
10341
10308
10311
10341
10372
10382
10372
10355
10344
10340
10340
10342
10348
10359
10370
10375
10374
10370
10369
10373
10381
10388
10390
10386
10376
10364
10357
10362
10378
10397
10405
10395
10370
10338
10310
10295
10298
10318
10346
10365
10364
10345
10327
10326
10344
10365
10369
10353
10335
10329
10338
10348
10347
10344
10353
10376
10393
10383
10349
10316
10314
10341
10373
10383
10369
10353
10350
10352
10343
10324
10314
10333
10371
10395
10377
10326
10279
10267
10290
10323
10342
10342
10331
10316
10296
10277
10274
10297
10339
10376
10386
10372
10349
10332
10325
10324
10332
10354
10383
10396
10374
10327
10288
10284
10310
10333
10328
10301
10282
10292
10322
10348
10355
10351
10351
10357
10358
10347
10330
10322
10327
10336
10336
10326
10312
10303
10296
10291
10290
10304
10332
10364
10383
10380
10357
10326
10297
10282
10291
10325
10368
10394
10384
10341
10294
10274
10289
10326
10365
10393
10408
10408
10389
10353
10311
10281
10274
10281
10289
10290
10289
10300
10320
10338
10341
10335
10337
10359
10394
10420
10420
10402
10394
10413
10452
10477
10464
10420
10377
10363
10378
10398
10398
10379
10359
10349
10342
10326
10305
10301
10328
10369
10386
10360
10311
10282
10299
10343
10373
10365
10336
10316
10316
10321
10312
10295
10291
10313
10349
10369
10361
10334
10312
10301
10294
10280
10261
10249
10257
10283
10315
10341
10350
10337
10308
10281
10277
10305
10358
10410
10447
10470
10500
10556
10643
10748
10853
10947
11030
11108
11190
11270
11330
11342
11282
11153
10980
10794
10612
10442
10287
10164
10087
10056
10056
10071
10102
10160
10241
10317
10352
10335
10294
10270
10285
10329
10368
10382
10369
10337
10303
10280
10284
10317
10361
10384
10370
10330
10299
10298
10319
10335
10332
10326
10338
10367
10384
10368
10325
10290
10291
10326
10367
10390
10395
10393
10394
10394
10388
10384
10390
10402
10403
10381
10344
10321
10333
10376
10422
10444
10434
10407
10383
10370
10365
10364
10370
10390
10423
10456
10471
10459
10427
10394
10378
10386
10410
10438
10464
10485
10499
10502
10492
10476
10468
10480
10508
10535
10543
10529
10506
10495
10505
10532
10562
10585
10601
10611
10616
10614
10610
10611
10623
10641
10654
10652
10639
10634
10651
10684
10714
10724
10715
10703
10701
10705
10700
10682
10664
10665
10688
10717
10730
10722
10701
10683
10671
10662
10652
10644
10640
10632
10611
10577
10544
10526
10519
10508
10484
10454
10433
10425
10416
10397
10379
10385
10418
10450
10444
10391
10329
10302
10326
10370
10397
10394
10379
10371
10367
10354
10333
10327
10348
10382
10391
10353
10291
10250
10260
10309
10358
10383
10383
10378
10375
10371
10360
10348
10347
10359
10370
10365
10339
10305
10280
10275
10291
10321
10353
10381
10399
10405
10398
10379
10355
10337
10340
10364
10392
10399
10371
10323
10288
10292
10330
10378
10408
10412
10397
10373
10348
10329
10329
10354
10394
10422
10418
10384
10344
10320
10314
10315
10317
10325
10348
10378
10395
10386
10361
10344
10349
10365
10371
10355
10326
10308
10313
10338
10367
10387
10393
10389
10379
10369
10358
10345
10329
10314
10303
10298
10297
10295
10292
10295
10312
10340
10365
10375
10366
10345
10323
10308
10303
10312
10337
10366
10382
10369
10336
10305
10298
10313
10331
10338
10335
10335
10342
10344
10332
10313
10307
10323
10348
10358
10341
10311
10289
10285
10290
10296
10304
10323
10348
10359
10340
10298
10267
10273
10317
10366
10385
10365
10326
10299
10300
10323
10346
10356
10350
10340
10334
10332
10324
10305
10286
10283
10307
10345
10369
10358
10319
10286
10287
10324
10370
10394
10384
10352
10317
10290
10276
10278
10298
10328
10352
10351
10329
10305
10302
10326
10360
10385
10390
10380
10357
10321
10277
10242
10239
10277
10337
10381
10384
10351
10311
10292
10298
10318
10336
10349
10360
10369
10367
10351
10329
10320
10338
10380
10422
10440
10426
10396
10377
10385
10415
10439
10435
10402
10360
10327
10308
10294
10280
10274
10288
10320
10346
10340
10302
10262
10254
10285
10328
10347
10333
10304
10286
10284
10285
10278
10274
10291
10328
10364
10370
10345
10311
10295
10299
10304
10291
10263
10242
10243
10264
10285
10292
10283
10266
10253
10249
10256
10270
10284
10294
10309
10351
10436
10556
10675
10761
10811
10855
10932
11049
11182
11293
11358
11369
11322
11210
11034
10825
10625
10466
10345
10241
10142
10066
10039
10065
10115
10156
10175
10189
10214
10247
10269
10272
10269
10282
10313
10344
10350
10329
10300
10285
10289
10302
10312
10315
10315
10314
10311
10309
10312
10323
10340
10355
10359
10354
10344
10338
10343
10363
10389
10408
10406
10384
10358
10346
10351
10354
10334
10296
10269
10282
10332
10380
10385
10338
10276
10250
10279
10344
10403
10425
10412
10384
10363
10361
10378
10404
10424
10427
10409
10380
10355
10347
10363
10398
10445
10492
10522
10521
10486
10438
10409
10418
10455
10487
10488
10460
10434
10438
10472
10515
10539
10538
10528
10526
10538
10553
10565
10574
10588
10612
10640
10659
10661
10649
10635
10629
10637
10654
10670
10674
10665
10652
10650
10667
10699
10731
10746
10736
10706
10669
10640
10628
10635
10654
10669
10664
10634
10589
10546
10522
10519
10530
10541
10544
10533
10504
10463
10421
10394
10390
10402
10416
10420
10413
10405
10396
10382
10362
10349
10356
10383
10407
10402
10365
10322
10304
10313
10325
10316
10288
10269
10278
10306
10328
10330
10325
10332
10353
10367
10356
10326
10298
10289
10290
10291
10292
10306
10336
10362
10359
10329
10300
10302
10335
10369
10377
10361
10348
10353
10365
10363
10342
10325
10337
10375
10408
10406
10369
10325
10304
10311
10331
10346
10347
10341
10337
10339
10345
10345
10333
10311
10291
10288
10306
10331
10345
10339
10323
10317
10327
10342
10347
10338
10327
10330
10348
10371
10385
10387
10376
10352
10316
10274
10245
10245
10279
10332
10380
10405
10401
10374
10337
10306
10294
10302
10319
10331
10329
10322
10316
10314
10311
10305
10300
10301
10306
10302
10288
10278
10291
10329
10366
10375
10350
10316
10299
10301
10301
10282
10253
10244
10268
10305
10324
10314
10296
10300
10333
10368
10371
10337
10290
10261
10268
10299
10331
10347
10344
10329
10311
10296
10284
10275
10270
10270
10277
10290
10305
10318
10326
10328
10322
10306
10285
10271
10276
10298
10317
10314
10288
10265
10270
10305
10343
10356
10335
10302
10286
10293
10310
10321
10321
10315
10307
10297
10284
10275
10279
10298
10321
10337
10343
10345
10343
10330
10303
10271
10257
10273
10309
10340
10346
10328
10305
10294
10299
10309
10315
10316
10315
10315
10316
10320
10326
10334
10344
10353
10359
10361
10358
10353
10351
10361
10383
10408
10421
10410
10377
10335
10299
10278
10273
10283
10300
10314
10314
10299
10276
10258
10253
10259
10264
10263
10258
10253
10254
10258
10266
10277
10290
10298
10298
10291
10284
10283
10287
10291
10291
10290
10289
10283
10266
10239
10221
10225
10252
10282
10294
10284
10266
10253
10249
10251
10263
10302
10372
10459
10534
10582
10618
10676
10772
10892
11006
11094
11155
11199
11217
11189
11094
10938
10748
10561
10399
10269
10171
10104
10066
10053
10060
10084
10126
10180
10238
10286
10311
10311
10292
10269
10259
10270
10298
10324
10330
10310
10279
10260
10266
10288
10304
10299
10273
10245
10234
10250
10286
10324
10344
10333
10297
10260
10250
10274
10317
10349
10353
10334
10311
10299
10296
10294
10294
10303
10329
10360
10375
10357
10318
10285
10286
10321
10366
10390
10378
10338
10298
10281
10293
10324
10354
10371
10376
10372
10364
10350
10329
10315
10323
10364
10424
10475
10489
10460
10407
10359
10339
10349
10379
10414
10439
10447
10444
10443
10458
10486
10513
10524
10518
10509
10513
10532
10552
10563
10568
10579
10603
10626
10631
10614
10591
10585
10601
10622
10627
10613
10595
10590
10602
10620
10629
10627
10621
10620
10624
10629
10627
10618
10607
10600
10599
10599
10593
10577
10556
10539
10530
10521
10504
10480
10460
10452
10449
10433
10394
10348
10326
10344
10382
10404
10389
10351
10325
10325
10338
10337
10317
10299
10305
10328
10343
10330
10298
10273
10272
10285
10294
10290
10277
10267
10260
10255
10256
10272
10299
10318
10307
10268
10228
10220
10252
10299
10333
10342
10335
10326
10317
10304
10287
10275
10277
10289
10303
10314
10323
10327
10321
10301
10278
10270
10287
10319
10345
10349
10336
10314
10290
10262
10236
10224
10236
10266
10291
10302
10313
10343
10387
10412
10386
10317
10249
10227
10251
10288
10304
10300
10298
10311
10323
10314
10288
10274
10293
10330
10349
10326
10278
10242
10235
10250
10262
10266
10272
10285
10300
10303
10295
10291
10303
10324
10334
10324
10306
10299
10308
10321
10324
10318
10311
10306
10291
10259
10220
10198
10212
10253
10295
10319
10325
10323
10317
10302
10274
10245
10234
10248
10274
10292
10293
10282
10271
10265
10265
10270
10287
10311
10329
10322
10287
10245
10222
10225
10242
10253
10254
10257
10266
10277
10277
10267
10262
10274
10292
10297
10280
10253
10239
10245
10258
10264
10265
10274
10293
10306
10296
10268
10246
10247
10265
10280
10285
10290
10305
10316
10302
10264
10239
10261
10320
10357
10323
10235
10165
10175
10255
10334
10353
10315
10272
10258
10260
10247
10216
10206
10245
10314
10356
10334
10268
10212
10206
10242
10286
10314
10328
10337
10339
10328
10307
10297
10312
10345
10373
10377
10360
10338
10322
10314
10310
10312
10323
10335
10336
10318
10291
10270
10264
10268
10268
10261
10251
10245
10243
10245
10252
10266
10285
10297
10295
10282
10270
10265
10264
10259
10249
10245
10253
10265
10267
10252
10230
10222
10237
10269
10303
10327
10337
10332
10312
10281
10248
10224
10214
10209
10200
10188
10183
10199
10240
10301
10379
10470
10574
10683
10782
10861
10922
10982
11055
11144
11228
11272
11244
11128
10942
10732
10545
10407
10310
10228
10145
10065
10011
10001
10033
10089
10148
10197
10232
10250
10255
10253
10256
10266
10276
10275
10259
10243
10240
10249
10254
10242
10220
10218
10254
10315
10360
10355
10304
10246
10224
10247
10288
10309
10301
10282
10275
10284
10296
10301
10300
10304
10315
10322
10314
10294
10280
10283
10299
10312
10312
10302
10292
10283
10272
10261
10263
10288
10329
10361
10362
10335
10308
10309
10342
10384
10411
10412
10395
10377
10368
10371
10383
10394
10393
10376
10354
10345
10361
10395
10425
10435
10429
10426
10433
10444
10444
10435
10437
10465
10511
10547
10553
10532
10511
10512
10530
10550
10558
10556
10555
10560
10570
10580
10590
10604
10619
10628
10630
10633
10643
10656
10657
10635
10598
10571
10579
10622
10673
10701
10691
10655
10618
10599
10602
10612
10613
10592
10552
10505
10467
10452
10460
10481
10498
10501
10483
10450
10408
10365
10335
10331
10355
10392
10414
10400
10353
10303
10276
10278
10289
10290
10283
10286
10309
10338
10343
10317
10281
10270
10290
10316
10316
10285
10252
10244
10263
10287
10299
10304
10316
10332
10330
10296
10246
10219
10245
10311
10371
10385
10348
10289
10244
10232
10252
10289
10326
10345
10335
10298
10252
10221
10223
10257
10302
10334
10338
10311
10270
10239
10238
10267
10305
10327
10320
10302
10296
10313
10340
10355
10349
10333
10319
10311
10302
10286
10271
10268
10280
10300
10317
10325
10321
10305
10278
10251
10239
10255
10294
10334
10354
10348
10325
10300
10281
10273
10278
10295
10317
10330
10326
10308
10287
10272
10264
10259
10260
10271
10285
10292
10281
10264
10261
10283
10314
10324
10297
10252
10226
10239
10277
10311
10322
10315
10300
10283
10261
10243
10246
10281
10335
10369
10355
10299
10238
10212
10229
10268
10301
10314
10314
10309
10301
10281
10251
10222
10209
10218
10243
10268
10282
10282
10273
10262
10255
10258
10274
10299
10318
10314
10284
10242
10216
10223
10257
10295
10313
10308
10292
10278
10268
10261
10258
10265
10280
10290
10279
10252
10232
10240
10277
10317
10333
10323
10304
10291
10281
10261
10232
10212
10224
10266
10306
10313
10278
10227
10195
10201
10235
10275
10302
10312
10307
10296
10282
10272
10270
10277
10291
10307
10318
10319
10310
10297
10293
10303
10327
10351
10359
10343
10312
10285
10280
10303
10342
10376
10390
10381
10359
10339
10325
10313
10298
10282
10274
10277
10284
10281
10265
10249
10251
10275
10302
10313
10301
10280
10267
10263
10256
10242
10232
10242
10274
10303
10302
10265
10214
10182
10186
10219
10255
10275
10274
10263
10254
10257
10269
10279
10277
10261
10244
10238
10243
10249
10244
10232
10228
10250
10301
10371
10448
10527
10610
10698
10787
10878
10971
11063
11139
11183
11187
11155
11096
11010
10885
10718
10524
10338
10191
10094
10038
10010
10008
10032
10078
10133
10184
10221
10244
10253
10252
10249
10253
10267
10280
10274
10245
10205
10181
10189
10225
10271
10304
10313
10298
10268
10239
10226
10237
10262
10280
10280
10271
10276
10309
10361
10400
10403
10368
10318
10277
10257
10256
10266
10281
10292
10296
10291
10285
10284
10290
10297
10301
10305
10313
10326
10339
10346
10347
10349
10354
10361
10364
10357
10339
10313
10290
10285
10310
10359
10405
10417
10382
10326
10292
10306
10358
10413
10438
10435
10421
10414
10414
10415
10415
10421
10434
10449
10460
10467
10480
10501
10523
10532
10529
10529
10545
10576
10601
10605
10589
10571
10570
10590
10620
10645
10653
10644
10622
10599
10590
10607
10645
10684
10702
10686
10646
10603
10580
10587
10615
10649
10669
10665
10638
10601
10569
10550
10538
10527
10511
10493
10477
10464
10456
10451
10450
10446
10431
10401
10361
10324
10304
10301
10306
10309
10309
10313
10324
10336
10335
10317
10286
10257
10244
10251
10274
10304
10330
10344
10338
10312
10277
10250
10240
10242
10243
10231
10210
10198
10212
10248
10288
10309
10306
10291
10281
10279
10278
10268
10254
10248
10257
10274
10282
10277
10267
10264
10269
10275
10274
10271
10275
10288
10299
10299
10292
10288
10294
10302
10300
10283
10260
10245
10243
10248
10258
10274
10296
10314
10314
10293
10267
10254
10260
10272
10274
10265
10259
10265
10274
10270
10251
10231
10228
10243
10259
10265
10264
10272
10292
10313
10319
10309
10298
10298
10305
10303
10288
10271
10267
10274
10275
10254
10219
10191
10188
10206
10227
10236
10235
10234
10238
10243
10244
10245
10250
10264
10277
10279
10267
10248
10232
10222
10215
10209
10209
10220
10240
10258
10260
10244
10225
10220
10237
10266
10290
10300
10299
10296
10291
10276
10243
10201
10170
10166
10187
10213
10224
10218
10205
10201
10207
10219
10229
10236
10242
10248
10250
10244
10233
10226
10226
10235
10245
10249
10246
10241
10241
10254
10277
10293
10288
10258
10219
10196
10203
10232
10258
10261
10240
10211
10192
10190
10202
10220
10238
10248
10245
10231
10217
10216
10231
10252
10262
10257
10247
10244
10252
10260
10259
10254
10254
10264
10275
10272
10254
10231
10219
10223
10237
10253
10271
10292
10309
10308
10282
10244
10216
10218
10246
10281
10300
10297
10277
10254
10241
10243
10258
10274
10277
10256
10216
10178
10164
10181
10216
10248
10264
10262
10249
10232
10210
10190
10182
10197
10231
10266
10278
10255
10212
10181
10183
10219
10263
10283
10267
10223
10177
10153
10159
10184
10213
10231
10233
10222
10207
10193
10187
10191
10205
10221
10230
10225
10208
10195
10206
10257
10343
10448
10550
10639
10720
10805
10897
10994
11083
11155
11197
11199
11147
11036
10876
10691
10508
10348
10217
10120
10056
10018
9999
9986
9979
9989
10022
10076
10128
10160
10169
10172
10188
10217
10242
10251
10247
10245
10249
10247
10223
10183
10156
10168
10219
10274
10296
10270
10219
10178
10170
10195
10236
10277
10302
10304
10278
10233
10189
10169
10181
10216
10252
10270
10266
10246
10223
10209
10210
10224
10246
10265
10274
10271
10264
10257
10252
10246
10237
10234
10245
10266
10288
10296
10291
10285
10293
10319
10346
10356
10343
10321
10309
10316
10337
10353
10354
10344
10335
10339
10352
10363
10365
10362
10368
10390
10416
10426
10408
10378
10364
10388
10439
10485
10496
10475
10450
10447
10471
10505
10530
10545
10555
10561
10548
10513
10473
10461
10498
10566
10623
10637
10613
10584
10579
10597
10618
10627
10624
10618
10608
10584
10542
10495
10463
10455
10465
10475
10479
10481
10482
10476
10456
10423
10392
10377
10374
10369
10350
10320
10293
10279
10275
10272
10265
10255
10245
10234
10224
10217
10217
10219
10218
10210
10204
10210
10229
10245
10243
10220
10196
10190
10207
10232
10250
10254
10249
10240
10225
10206
10187
10176
10175
10180
10187
10201
10223
10251
10268
10268
10256
10247
10250
10255
10247
10229
10220
10234
10263
10277
10257
10214
10181
10182
10208
10237
10251
10251
10244
10232
10209
10177
10155
10165
10209
10263
10294
10288
10256
10222
10205
10210
10230
10253
10268
10266
10250
10227
10212
10216
10237
10262
10275
10267
10238
10202
10176
10172
10190
10219
10243
10251
10245
10231
10216
10206
10205
10214
10227
10234
10227
10211
10200
10205
10220
10229
10223
10211
10208
10213
10214
10200
10179
10177
10205
10245
10265
10246
10201
10157
10131
10120
10122
10141
10184
10237
10269
10258
10218
10188
10191
10215
10228
10213
10186
10171
10179
10197
10211
10222
10236
10246
10233
10194
10149
10129
10145
10180
10209
10225
10236
10242
10228
10181
10119
10084
10104
10164
10220
10239
10229
10218
10219
10221
10213
10203
10211
10236
10253
10235
10189
10151
10153
10183
10208
10205
10184
10174
10188
10208
10215
10206
10198
10202
10214
10223
10227
10233
10241
10243
10232
10212
10201
10205
10215
10215
10202
10192
10199
10216
10227
10220
10209
10208
10221
10232
10226
10212
10207
10224
10253
10277
10288
10295
10309
10330
10339
10324
10284
10238
10203
10190
10196
10213
10230
10242
10245
10240
10231
10215
10193
10168
10145
10136
10141
10152
10162
10167
10174
10184
10197
10204
10204
10205
10213
10226
10233
10225
10201
10171
10150
10147
10164
10190
10208
10204
10178
10153
10156
10191
10237
10256
10231
10183
10146
10142
10166
10203
10252
10328
10437
10558
10658
10725
10785
10871
10990
11111
11187
11192
11137
11044
10926
10782
10613
10434
10270
10135
10030
9954
9913
9917
9967
10044
10119
10170
10189
10181
10162
10146
10144
10162
10195
10229
10249
10246
10222
10184
10148
10127
10132
10160
10193
10209
10202
10184
10181
10201
10234
10259
10268
10270
10276
10282
10271
10240
10206
10195
10218
10253
10269
10254
10227
10218
10237
10268
10288
10286
10272
10258
10248
10241
10239
10247
10271
10304
10330
10333
10311
10277
10248
10236
10245
10268
10295
10312
10313
10301
10289
10287
10299
10320
10342
10358
10365
10360
10342
10320
10307
10318
10352
10395
10427
10435
10418
10391
10372
10375
10402
10439
10469
10478
10472
10468
10478
10501
10523
10533
10536
10544
10559
10565
10549
10516
10496
10513
10563
10613
10630
10610
10580
10571
10589
10619
10638
10639
10626
10609
10594
10581
10573
10567
10562
10555
10549
10551
10556
10551
10520
10462
10405
10376
10385
10409
10416
10395
10361
10336
10329
10330
10323
10310
10298
10299
10310
10323
10329
10324
10305
10273
10238
10216
10220
10246
10274
10286
10279
10266
10258
10254
10248
10241
10242
10257
10279
10291
10287
10274
10267
10269
10271
10266
10257
10257
10270
10286
10291
10283
10271
10268
10273
10276
10274
10274
10283
10295
10297
10281
10259
10253
10276
10320
10359
10375
10364
10337
10307
10281
10264
10260
10272
10293
10314
10322
10313
10295
10277
10273
10289
10320
10352
10364
10344
10299
10258
10254
10292
10347
10377
10356
10300
10252
10244
10273
10307
10318
10307
10298
10309
10330
10338
10319
10289
10278
10300
10337
10357
10343
10309
10283
10281
10298
10314
10317
10307
10291
10279
10282
10308
10352
10395
10406
10369
10305
10256
10254
10291
10328
10333
10307
10280
10282
10310
10337
10338
10318
10300
10306
10330
10350
10345
10316
10279
10256
10258
10278
10305
10325
10337
10343
10347
10344
10331
10308
10288
10287
10311
10347
10370
10363
10331
10297
10284
10297
10324
10348
10360
10364
10367
10370
10368
10356
10332
10304
10280
10269
10273
10293
10325
10364
10401
10424
10422
10392
10344
10297
10273
10281
10313
10355
10390
10404
10395
10366
10328
10299
10296
10323
10370
10411
10422
10397
10355
10324
10327
10358
10395
10413
10406
10389
10382
10396
10423
10443
10442
10422
10394
10370
10359
10366
10391
10428
10463
10483
10481
10465
10450
10444
10444
10444
10441
10439
10440
10436
10418
10388
10356
10338
10339
10352
10373
10395
10417
10431
10429
10412
10391
10382
10385
10390
10383
10366
10350
10346
10357
10372
10387
10397
10402
10404
10404
10407
10416
10423
10415
10387
10354
10340
10356
10387
10404
10394
10372
10364
10381
10409
10432
10453
10490
10556
10643
10733
10816
10897
10985
11077
11160
11227
11282
11325
11345
11316
11225
11082
10911
10736
10569
10417
10293
10215
10189
10202
10230
10252
10264
10271
10284
10312
10357
10410
10455
10477
10474
10461
10451
10449
10450
10447
10445
10445
10445
10437
10426
10432
10467
10518
10545
10520
10454
10396
10389
10430
10481
10510
10514
10510
10506
10489
10455
10420
10411
10439
10483
10511
10513
10504
10500
10499
10491
10479
10482
10510
10549
10567
10551
10519
10505
10517
10542
10558
10564
10571
10583
10586
10568
10536
10514
10516
10534
10548
10550
10551
10560
10573
10576
10573
10583
10621
10675
10714
10715
10685
10654
10642
10651
10669
10687
10705
10718
10719
10708
10696
10703
10735
10776
10805
10812
10805
10795
10787
10780
10778
10790
10821
10857
10878
10875
10856
10843
10847
10866
10889
10907
10915
10911
10897
10883
10881
10899
10928
10950
10953
10933
10900
10861
10819
10779
10753
10748
10758
10770
10768
10753
10733
10712
10691
10669
10652
10648
10651
10645
10622
10591
10574
10578
10591
10592
10576
10562
10568
10585
10589
10567
10535
10525
10551
10591
10613
10605
10584
10575
10583
10592
10584
10558
10529
10510
10504
10509
10528
10560
10594
10611
10600
10573
10556
10564
10586
10596
10579
10548
10530
10539
10562
10576
10570
10559
10562
10584
10609
10621
10618
10617
10630
10648
10654
10636
10605
10582
10575
10574
10570
10566
10578
10609
10638
10638
10600
10554
10538
10566
10612
10642
10643
10632
10632
10641
10637
10610
10577
10570
10601
10649
10675
10660
10620
10587
10581
10597
10618
10629
10628
10617
10603
10588
10575
10562
10550
10541
10541
10555
10576
10593
10597
10591
10590
10604
10628
10649
10655
10649
10633
10607
10571
10535
10519
10538
10585
10629
10645
10628
10599
10579
10570
10564
10559
10562
10580
10608
10629
10630
10616
10598
10585
10576
10572
10578
10594
10612
10616
10607
10600
10612
10638
10653
10635
10595
10564
10565
10586
10595
10577
10547
10537
10558
10589
10604
10597
10587
10590
10602
10604
10587
10567
10560
10571
10583
10583
10575
10576
10594
10616
10622
10606
10585
10582
10605
10634
10645
10626
10593
10568
10566
10583
10603
10611
10602
10584
10569
10568
10583
10605
10622
10625
10616
10602
10591
10588
10589
10593
10600
10606
10607
10599
10583
10568
10565
10578
10603
10627
10639
10634
10620
10610
10613
10635
10666
10694
10708
10708
10701
10696
10691
10682
10665
10645
10632
10629
10634
10634
10625
10611
10599
10595
10594
10594
10591
10588
10585
10580
10576
10578
10588
10604
10611
10599
10572
10546
10536
10546
10570
10599
10626
10644
10644
10620
10579
10541
10527
10539
10564
10587
10602
10612
10616
10605
10570
10523
10489
10489
10519
10552
10566
10559
10553
10570
10619
10698
10795
10902
11008
11105
11188
11265
11345
11434
11522
11593
11628
11610
11526
11372
11168
10951
10762
10618
10511
10421
10346
10306
10317
10369
10431
10475
10500
10523
10554
10583
10591
10578
10560
10562
10587
10620
10637
10627
10592
10550
10517
10509
10530
10567
10598
10607
10592
10571
10560
10565
10580
10599
10617
10629
10624
10594
10548
10510
10502
10527
10567
10600
10617
10626
10632
10634
10626
10611
10603
10608
10623
10634
10632
10620
10607
10603
10610
10626
10646
10660
10655
10627
10590
10568
10579
10619
10666
10702
10719
10720
10708
10682
10651
10631
10638
10666
10690
10687
10660
10637
10641
10674
10716
10748
10762
10765
10764
10760
10753
10747
10743
10740
10735
10735
10752
10791
10840
10878
10892
10890
10890
10898
10902
10890
10864
10844
10850
10880
10914
10932
10931
10916
10899
10886
10881
10890
10914
10944
10961
10954
10923
10884
10852
10839
10841
10845
10839
10813
10771
10731
10714
10729
10760
10783
10780
10754
10719
10685
10650
10609
10572
10553
10563
10587
10601
10593
10574
10566
10582
10605
10611
10587
10545
10512
10505
10519
10537
10545
10542
10540
10545
10557
10563
10556
10537
10516
10505
10508
10522
10540
10557
10570
10576
10570
10552
10529
10512
10511
10521
10533
10537
10537
10541
10557
10579
10590
10583
10563
10547
10548
10564
10577
10575
10557
10539
10534
10540
10545
10536
10516
10502
10506
10527
10552
10563
10558
10543
10532
10529
10534
10545
10558
10566
10559
10536
10506
10489
10500
10534
10574
10598
10597
10574
10540
10502
10468
10448
10451
10479
10517
10545
10548
10532
10509
10496
10496
10503
10509
10510
10507
10505
10505
10504
10501
10494
10491
10497
10512
10527
10529
10514
10493
10478
10474
10474
10466
10455
10455
10476
10508
10530
10531
10519
10516
10530
10546
10544
10519
10487
10468
10470
10484
10496
10498
10489
10472
10452
10440
10447
10472
10500
10508
10490
10463
10449
10459
10479
10491
10489
10481
10477
10474
10469
10466
10481
10517
10557
10569
10541
10488
10441
10421
10424
10433
10444
10461
10486
10507
10506
10478
10443
10428
10447
10488
10527
10545
10537
10510
10477
10453
10444
10451
10462
10464
10456
10450
10457
10478
10500
10504
10490
10470
10461
10466
10476
10480
10477
10471
10469
10470
10469
10471
10478
10489
10495
10488
10475
10475
10502
10547
10581
10580
10546
10504
10485
10496
10517
10522
10500
10462
10430
10414
10417
10430
10448
10465
10474
10471
10456
10440
10435
10442
10453
10458
10453
10445
10440
10439
10437
10434
10437
10445
10452
10446
10420
10389
10372
10382
10415
10446
10457
10443
10416
10395
10392
10405
10420
10424
10414
10399
10392
10399
10415
10431
10444
10469
10522
10603
10701
10796
10880
10962
11052
11149
11241
11317
11369
11391
11369
11286
11136
10936
10729
10554
10426
10333
10256
10188
10143
10138
10174
10230
10278
10307
10323
10343
10373
10402
10416
10417
10420
10438
10462
10469
10446
10408
10388
10406
10448
10477
10469
10433
10398
10385
10389
10394
10395
10399
10414
10433
10441
10432
10415
10405
10405
10408
10410
10418
10437
10460
10467
10451
10425
10414
10427
10451
10464
10458
10443
10433
10429
10429
10433
10448
10473
10494
10490
10460
10426
10415
10433
10461
10471
10457
10432
10417
10420
10436
10457
10480
10501
10517
10526
10528
10529
10531
10532
10529
10526
10535
10560
10591
10609
10601
10570
10537
10525
10544
10589
10640
10671
10669
10643
10616
10614
10641
10680
10709
10717
10711
10704
10700
10696
10693
10696
10709
10723
10728
10720
10710
10708
10717
10723
10717
10705
10699
10704
10713
10714
10705
10693
10685
10672
10649
10617
10587
10566
10548
10527
10508
10507
10529
10553
10551
10508
10447
10403
10396
10413
10426
10420
10403
10390
10386
10381
10370
10360
10365
10392
10431
10460
10458
10420
10363
10312
10292
10307
10335
10346
10330
10301
10287
10301
10328
10345
10344
10336
10334
10335
10326
10304
10288
10296
10326
10356
10363
10350
10338
10342
10359
10374
10380
10386
10401
10417
10416
10387
10344
10309
10300
10312
10331
10344
10345
10339
10333
10332
10341
10358
10374
10379
10373
10362
10356
10354
10349
10338
10330
10332
10343
10350
10340
10320
10305
10309
10331
10354
10364
10355
10335
10317
10312
10321
10338
10349
10345
10328
10311
10310
10328
10356
10381
10398
10405
10394
10358
10302
10250
10233
10259
10307
10340
10343
10329
10320
10323
10324
10310
10290
10284
10301
10325
10331
10313
10289
10281
10293
10309
10316
10313
10306
10301
10293
10282
10274
10279
10297
10317
10328
10329
10326
10319
10306
10286
10270
10271
10293
10319
10329
10317
10300
10295
10302
10308
10299
10280
10264
10260
10262
10261
10258
10263
10286
10319
10342
10340
10315
10281
10255
10242
10240
10245
10257
10274
10289
10294
10284
10265
10250
10251
10267
10288
10299
10297
10290
10290
10303
10324
10341
10343
10327
10299
10270
10249
10244
10255
10277
10298
10305
10295
10276
10260
10259
10271
10291
10309
10319
10324
10329
10340
10354
10361
10354
10333
10313
10314
10339
10369
10378
10350
10298
10253
10238
10252
10270
10273
10258
10241
10236
10246
10261
10269
10267
10260
10252
10247
10244
10246
10253
10262
10265
10255
10233
10207
10194
10203
10231
10262
10282
10284
10275
10262
10249
10235
10221
10211
10212
10225
10246
10262
10266
10254
10235
10220
10222
10254
10315
10398
10488
10575
10661
10750
10843
10932
11012
11083
11147
11191
11192
11124
10988
10810
10629
10466
10323
10199
10099
10037
10016
10022
10041
10070
10113
10166
10205
10206
10173
10141
10148
10200
10265
10303
10298
10265
10229
10208
10203
10218
10250
10291
10323
10330
10312
10289
10277
10276
10272
10260
10250
10252
10264
10270
10259
10242
10239
10259
10284
10291
10267
10229
10202
10206
10239
10282
10314
10318
10295
10260
10235
10241
10273
10310
10331
10329
10316
10309
10312
10320
10324
10324
10324
10322
10313
10297
10284
10287
10312
10348
10380
10390
10375
10345
10313
10295
10297
10314
10331
10342
10351
10371
10403
10433
10438
10415
10389
10390
10431
10486
10516
10504
10465
10431
10428
10458
10507
10554
10579
10574
10546
10517
10511
10534
10567
10579
10561
10532
10522
10543
10579
10606
10614
10616
10623
10634
10638
10627
10606
10584
10563
10542
10523
10515
10519
10524
10510
10472
10429
10411
10426
10450
10450
10410
10349
10301
10290
10309
10332
10338
10320
10287
10259
10249
10258
10278
10298
10310
10315
10313
10303
10279
10243
10209
10195
10211
10247
10279
10290
10276
10249
10221
10201
10194
10203
10225
10250
10263
10256
10234
10212
10205
10212
10227
10242
10254
10264
10271
10267
10252
10231
10220
10229
10255
10281
10290
10272
10239
10210
10199
10208
10224
10236
10242
10250
10266
10283
10292
10284
10266
10251
10250
10258
10267
10270
10269
10273
10282
10290
10288
10273
10251
10233
10227
10234
10248
10260
10259
10246
10227
10216
10221
10238
10256
10267
10270
10269
10266
10258
10245
10232
10226
10231
10243
10254
10260
10259
10251
10235
10213
10195
10191
10203
10223
10238
10244
10249
10260
10273
10279
10269
10250
10237
10235
10238
10234
10220
10206
10205
10219
10237
10249
10250
10245
10238
10230
10221
10209
10200
10198
10203
10212
10224
10233
10238
10239
10240
10240
10238
10227
10206
10184
10180
10203
10244
10278
10281
10255
10225
10214
10228
10251
10261
10253
10236
10221
10209
10194
10175
10164
10176
10208
10242
10257
10245
10219
10198
10196
10208
10227
10244
10256
10260
10251
10227
10195
10168
10160
10176
10210
10247
10270
10274
10260
10239
10223
10223
10238
10260
10274
10272
10254
10233
10221
10228
10252
10279
10288
10265
10217
10169
10150
10174
10227
10278
10305
10309
10308
10313
10320
10316
10299
10284
10288
10309
10324
10313
10274
10231
10207
10213
10237
10265
10286
10297
10295
10279
10251
10225
10212
10215
10221
10215
10193
10170
10164
10182
10212
10232
10232
10214
10197
10196
10215
10240
10254
10249
10229
10210
10201
10202
10209
10221
10243
10270
10290
10284
10248
10198
10163
10154
10166
10176
10178
10181
10201
10251
10327
10426
10543
10671
10796
10899
10973
11030
11083
11133
11158
11132
11049
10923
10778
10624
10465
10308
10175
10085
10041
10023
10010
9999
10004
10034
10083
10130
10160
10175
10188
10204
10220
10224
10215
10198
10187
10188
10203
10223
10240
10248
10247
10244
10245
10249
10249
10243
10235
10233
10242
10253
10256
10247
10235
10233
10243
10258
10262
10248
10222
10196
10185
10200
10243
10301
10345
10353
10320
10272
10240
10238
10256
10269
10268
10263
10271
10292
10313
10319
10311
10301
10300
10306
10310
10305
10294
10286
10287
10299
10321
10345
10359
10356
10342
10331
10337
10356
10371
10368
10351
10340
10347
10367
10382
10387
10395
10422
10464
10498
10503
10481
10455
10447
10458
10476
10491
10502
10516
10530
10535
10529
10524
10533
10561
10594
10612
10609
10597
10588
10590
10598
10606
10613
10621
10629
10631
10622
10602
10584
10578
10589
10605
10609
10590
10553
10516
10497
10501
10515
10520
10502
10464
10420
10380
10346
10318
10299
10294
10305
10326
10344
10349
10339
10319
10296
10276
10265
10264
10266
10263
10248
10226
10211
10213
10233
10258
10276
10283
10285
10286
10289
10291
10287
10275
10251
10216
10178
10154
10157
10184
10218
10241
10247
10250
10257
10265
10260
10239
10216
10213
10237
10271
10288
10279
10258
10250
10264
10283
10285
10263
10234
10225
10240
10263
10271
10257
10245
10257
10293
10325
10317
10268
10210
10189
10217
10267
10298
10293
10273
10264
10271
10274
10256
10231
10225
10252
10289
10301
10274
10231
10207
10215
10238
10251
10246
10238
10242
10260
10277
10281
10271
10255
10244
10247
10265
10286
10289
10258
10204
10163
10168
10215
10262
10267
10229
10188
10183
10212
10241
10240
10219
10209
10222
10242
10241
10222
10212
10232
10271
10294
10280
10244
10215
10210
10221
10233
10245
10261
10271
10256
10209
10153
10126
10147
10196
10240
10258
10258
10254
10246
10225
10193
10173
10183
10214
10231
10213
10172
10145
10156
10193
10227
10240
10243
10251
10264
10263
10239
10208
10196
10213
10240
10246
10218
10174
10148
10157
10191
10224
10235
10222
10199
10183
10182
10192
10202
10205
10204
10210
10227
10251
10271
10274
10258
10230
10200
10179
10175
10188
10211
10233
10240
10230
10215
10205
10206
10212
10214
10213
10219
10240
10274
10306
10319
10307
10279
10249
10230
10226
10235
10251
10269
10283
10289
10285
10269
10246
10224
10214
10221
10237
10252
10256
10251
10243
10234
10220
10198
10174
10163
10173
10195
10208
10199
10176
10160
10167
10191
10214
10224
10221
10217
10219
10225
10230
10228
10217
10197
10170
10144
10133
10140
10160
10178
10185
10184
10185
10191
10191
10178
10154
10138
10147
10185
10240
10300
10365
10444
10545
10659
10772
10875
10971
11065
11151
11204
11202
11133
11012
10862
10697
10518
10328
10142
9990
9902
9883
9908
9949
9986
10020
10058
10097
10124
10134
10137
10149
10174
10199
10206
10194
10180
10182
10199
10216
10221
10214
10209
10214
10219
10216
10203
10195
10203
10228
10255
10264
10248
10213
10174
10149
10153
10188
10238
10279
10289
10267
10234
10213
10209
10209
10203
10192
10192
10209
10234
10245
10238
10226
10231
10259
10290
10299
10276
10239
10219
10234
10274
10314
10330
10316
10286
10258
10244
10244
10253
10266
10283
10298
10307
10307
10303
10306
10324
10352
10375
10378
10361
10333
10310
10301
10312
10343
10389
10433
10457
10455
10435
10420
10423
10439
10449
10443
10431
10432
10455
10490
10525
10557
10592
10627
10646
10628
10573
10511
10478
10491
10533
10574
10599
10607
10606
10593
10567
10534
10515
10521
10547
10569
10566
10538
10504
10482
10475
10472
10462
10440
10414
10392
10385
10397
10418
10430
10411
10356
10284
10223
10196
10202
10228
10255
10272
10273
10257
10226
10191
10169
10169
10185
10202
10209
10210
10212
10216
10218
10211
10201
10200
10208
10216
10216
10211
10214
10228
10238
10226
10189
10153
10145
10174
10215
10238
10232
10211
10192
10183
10178
10176
10182
10201
10222
10230
10220
10206
10207
10225
10241
10237
10217
10204
10214
10240
10258
10249
10219
10189
10175
10175
10180
10188
10201
10217
10226
10221
10206
10197
10201
10210
10207
10187
10168
10173
10204
10237
10245
10217
10176
10153
10162
10191
10216
10221
10210
10195
10189
10193
10198
10199
10196
10191
10188
10185
10179
10166
10150
10141
10147
10168
10198
10224
10238
10232
10210
10177
10147
10133
10138
10155
10169
10173
10169
10165
10168
10171
10167
10154
10144
10149
10172
10203
10224
10226
10213
10191
10165
10139
10120
10113
10123
10144
10164
10176
10178
10174
10167
10156
10141
10125
10119
10131
10158
10186
10197
10183
10153
10129
10127
10147
10170
10179
10168
10152
10146
10155
10167
10168
10159
10148
10144
10145
10140
10130
10122
10124
10133
10138
10135
10134
10144
10158
10160
10142
10120
10124
10162
10205
10214
10178
10128
10110
10139
10187
10210
10188
10143
10110
10106
10120
10136
10147
10162
10183
10203
10210
10200
10183
10168
10159
10152
10151
10162
10185
10209
10220
10213
10199
10194
10203
10217
10225
10223
10220
10220
10217
10202
10173
10140
10121
10123
10137
10145
10138
10121
10110
10112
10124
10133
10133
10127
10124
10128
10134
10133
10128
10131
10148
10169
10172
10143
10093
10057
10065
10114
10171
10196
10176
10134
10106
10113
10143
10168
10165
10134
10096
10073
10077
10110
10164
10234
10316
10405
10501
10600
10698
10790
10875
10949
11016
11074
11113
11114
11056
10933
10761
10577
10412
10278
10167
10066
9979
9919
9901
9921
9961
10003
10040
10074
10104
10120
10115
10096
10085
10098
10135
10175
10193
10183
10157
10135
10132
10148
10177
10203
10214
10204
10178
10151
10139
10151
10176
10199
10206
10196
10176
10160
10154
10163
10181
10198
10204
10197
10185
10179
10183
10191
10194
10192
10191
10201
10218
10229
10226
10212
10201
10204
10222
10245
10261
10263
10249
10225
10207
10213
10248
10293
10316
10299
10254
10218
10214
10240
10268
10283
10289
10302
10320
10322
10296
10255
10234
10255
10304
10350
10372
10378
10387
10402
10411
10407
10403
10416
10446
10467
10457
10421
10394
10402
10438
10473
10488
10492
10509
10539
10559
10549
10516
10492
10496
10521
10541
10541
10532
10530
10539
10549
10554
10559
10570
10579
10568
10531
10488
10466
10472
10484
10475
10440
10404
10389
10396
10403
10397
10383
10375
10373
10362
10334
10301
10281
10280
10286
10284
10275
10276
10288
10294
10272
10227
10191
10189
10214
10235
10231
10215
10218
10246
10276
10278
10247
10213
10200
10205
10207
10193
10180
10189
10223
10255
10257
10228
10196
10186
10202
10234
10266
10297
10324
10338
10329
10297
10253
10214
10189
10179
10188
10216
10258
10293
10299
10271
10236
10225
10247
10281
10295
10275
10236
10205
10196
10208
10232
10263
10296
10320
10323
10305
10282
10273
10281
10291
10286
10266
10248
10252
10273
10292
10291
10273
10263
10275
10303
10321
10310
10274
10237
10221
10229
10245
10251
10246
10238
10232
10229
10227
10231
10247
10272
10285
10264
10216
10175
10178
10230
10294
10324
10308
10278
10277
10312
10348
10341
10287
10221
10189
10199
10224
10231
10216
10202
10213
10248
10283
10297
10287
10265
10245
10236
10240
10258
10283
10303
10304
10285
10257
10239
10241
10256
10273
10286
10298
10311
10316
10303
10268
10227
10202
10203
10217
10225
10215
10201
10203
10229
10264
10283
10277
10261
10261
10284
10315
10331
10323
10304
10295
10296
10293
10274
10246
10228
10237
10265
10292
10302
10296
10287
10281
10276
10268
10260
10260
10270
10279
10276
10264
10254
10256
10268
10280
10288
10299
10319
10346
10365
10364
10343
10320
10307
10313
10331
10353
10373
10382
10378
10366
10356
10355
10358
10349
10319
10278
10248
10247
10268
10289
10295
10285
10274
10270
10268
10261
10253
10257
10280
10309
10324
10312
10283
10265
10273
10302
10330
10337
10323
10299
10279
10270
10269
10277
10297
10329
10363
10381
10368
10331
10288
10263
10261
10272
10280
10278
10271
10269
10269
10269
10273
10295
10352
10441
10540
10623
10683
10734
10798
10883
10981
11079
11168
11242
11283
11266
11175
11017
10827
10646
10496
10374
10272
10186
10125
10100
10110
10146
10191
10234
10266
10285
10290
10284
10273
10264
10265
10282
10312
10342
10354
10342
10316
10301
10315
10354
10394
10410
10398
10369
10340
10317
10301
10295
10309
10341
10374
10379
10351
10314
10304
10335
10384
10414
10406
10371
10337
10315
10301
10290
10287
10308
10350
10392
10410
10403
10394
10404
10430
10448
10439
10408
10377
10364
10369
10381
10394
10407
10420
10425
10418
10406
10404
10420
10446
10461
10458
10445
10437
10440
10446
10446
10444
10452
10470
10486
10489
10480
10477
10492
10518
10541
10552
10562
10583
10612
10632
10626
10601
10578
10575
10589
10606
10617
10625
10634
10641
10640
10632
10632
10649
10679
10707
10717
10711
10702
10696
10691
10686
10684
10691
10701
10697
10671
10636
10619
10635
10668
10683
10664
10623
10586
10567
10554
10530
10496
10470
10466
10478
10489
10487
10479
10477
10480
10474
10455
10432
10420
10420
10416
10396
10367
10351
10362
10388
10403
10394
10373
10360
10365
10378
10385
10379
10368
10359
10351
10344
10341
10350
10372
10394
10400
10387
10370
10364
10368
10370
10360
10342
10334
10344
10365
10377
10376
10369
10371
10387
10405
10411
10404
10394
10390
10389
10385
10371
10355
10350
10360
10376
10385
10379
10369
10372
10396
10433
10463
10470
10451
10423
10403
10398
10400
10394
10376
10353
10342
10353
10377
10396
10396
10377
10355
10348
10362
10385
10401
10399
10384
10375
10387
10418
10449
10457
10433
10387
10346
10330
10344
10371
10393
10400
10394
10384
10379
10379
10383
10388
10393
10394
10391
10380
10365
10351
10344
10349
10365
10384
10398
10400
10388
10367
10349
10344
10356
10377
10397
10405
10400
10388
10378
10374
10375
10378
10382
10388
10396
10399
10393
10376
10356
10343
10344
10353
10360
10358
10350
10348
10358
10376
10392
10400
10400
10399
10400
10399
10394
10387
10385
10394
10409
10417
10408
10383
10352
10331
10328
10340
10361
10383
10401
10410
10408
10397
10384
10378
10385
10399
10410
10410
10401
10389
10382
10384
10392
10403
10412
10415
10407
10389
10371
10365
10383
10418
10450
10461
10447
10423
10410
10413
10423
10430
10430
10434
10445
10456
10451
10427
10395
10375
10375
10387
10394
10387
10371
10359
10361
10374
10391
10400
10400
10395
10396
10404
10414
10412
10389
10356
10333
10337
10362
10383
10381
10358
10337
10334
10343
10343
10327
10311
10316
10345
10376
10388
10382
10380
10389
10395
10374
10328
10288
10285
10321
10362
10383
10393
10427
10510
10625
10731
10802
10851
10907
10989
11083
11170
11237
11284
11305
11285
11207
11071
10897
10715
10544
10395
10274
10189
10143
10130
10141
10169
10206
10242
10265
10268
10262
10272
10313
10370
10409
10410
10380
10352
10351
10375
10401
10410
10402
10393
10391
10395
10398
10396
10394
10395
10400
10400
10392
10375
10357
10349
10363
10399
10437
10449
10415
10352
10300
10300
10354
10423
10460
10447
10410
10384
10384
10396
10398
10389
10393
10427
10478
10514
10508
10464
10414
10391
10403
10437
10466
10475
10460
10434
10415
10423
10461
10514
10549
10540
10487
10422
10385
10397
10444
10492
10516
10512
10497
10488
10491
10502
10519
10544
10581
10621
10648
10648
10619
10573
10533
10517
10534
10579
10632
10673
10683
10662
10625
10596
10596
10630
10689
10748
10783
10785
10763
10738
10729
10737
10747
10750
10744
10739
10741
10743
10734
10714
10696
10692
10701
10704
10688
10657
10626
10607
10598
10587
10570
10555
10544
10533
10513
10486
10466
10467
10484
10499
10495
10475
10453
10437
10421
10402
10386
10387
10408
10429
10425
10393
10356
10345
10365
10394
10404
10388
10364
10350
10351
10355
10349
10336
10327
10330
10342
10355
10362
10365
10367
10375
10393
10419
10442
10447
10431
10402
10377
10364
10362
10359
10351
10345
10348
10362
10377
10388
10398
10411
10425
10427
10409
10379
10354
10350
10371
10402
10427
10431
10412
10379
10350
10342
10356
10378
10388
10377
10357
10342
10340
10341
10340
10342
10358
10384
10402
10394
10367
10349
10361
10393
10413
10398
10359
10330
10332
10355
10376
10381
10379
10384
10395
10399
10386
10362
10340
10329
10330
10343
10364
10388
10402
10394
10367
10338
10327
10336
10349
10352
10346
10345
10355
10368
10370
10358
10341
10328
10324
10326
10333
10346
10358
10360
10344
10319
10305
10314
10338
10353
10344
10318
10298
10298
10315
10333
10340
10336
10330
10330
10338
10350
10360
10359
10343
10322
10309
10314
10333
10349
10355
10356
10363
10375
10377
10354
10315
10284
10284
10313
10348
10367
10363
10345
10323
10305
10297
10305
10326
10346
10347
10328
10306
10306
10334
10371
10388
10379
10356
10335
10322
10308
10293
10288
10306
10343
10381
10397
10384
10354
10325
10311
10317
10341
10374
10402
10410
10398
10379
10372
10384
10405
10419
10418
10407
10394
10383
10370
10354
10339
10330
10330
10333
10335
10332
10326
10315
10298
10282
10277
10292
10323
10357
10374
10369
10348
10327
10317
10323
10342
10365
10380
10372
10338
10284
10230
10196
10196
10225
10270
10308
10324
10316
10292
10271
10266
10278
10296
10306
10298
10274
10245
10229
10242
10288
10355
10420
10466
10498
10541
10617
10729
10857
10976
11070
11135
11174
11191
11188
11170
11135
11059
10915
10701
10459
10260
10148
10111
10095
10064
10027
10024
10072
10143
10191
10199
10192
10208
10254
10305
10337
10349
10353
10354
10342
10314
10295
10313
10365
10405
10381
10293
10198
10161
10201
10275
10323
10323
10299
10286
10294
10311
10322
10330
10343
10357
10356
10329
10290
10266
10275
10312
10352
10373
10371
10353
10334
10323
10319
10323
10332
10348
10368
10386
10390
10373
10343
10318
10318
10346
10379
10390
10368
10332
10309
10319
10352
10388
10410
10414
10408
10398
10388
10384
10391
10412
10436
10452
10454
10449
10447
10454
10465
10477
10488
10500
10510
10515
10510
10498
10483
10470
10464
10471
10496
10539
10588
10622
10632
10627
10625
10638
10659
10672
10666
10645
10626
10619
10628
10645
10665
10679
10681
10670
10652
10638
10637
10646
10654
10655
10649
10642
10632
10614
10586
10556
10539
10538
10539
10528
10500
10469
10448
10437
10423
10398
10371
10359
10366
10380
10378
10353
10322
10310
10324
10353
10369
10358
10324
10286
10267
10275
10305
10342
10369
10372
10347
10302
10253
10220
10214
10232
10262
10285
10289
10272
10245
10225
10225
10245
10278
10307
10318
10311
10294
10280
10278
10287
10300
10311
10319
10324
10323
10313
10293
10274
10267
10275
10287
10285
10269
10255
10268
10308
10349
10361
10334
10295
10278
10292
10315
10317
10290
10257
10251
10278
10312
10319
10292
10253
10236
10256
10296
10325
10326
10307
10286
10276
10271
10259
10240
10228
10240
10274
10309
10319
10294
10252
10220
10215
10234
10261
10285
10300
10307
10306
10295
10281
10273
10273
10268
10247
10211
10181
10182
10220
10271
10304
10304
10281
10259
10254
10261
10265
10257
10244
10239
10248
10266
10280
10279
10265
10249
10243
10250
10260
10258
10244
10225
10216
10221
10235
10247
10256
10262
10265
10256
10233
10207
10200
10221
10254
10268
10249
10211
10186
10189
10208
10222
10225
10230
10251
10278
10282
10250
10204
10181
10205
10257
10301
10309
10286
10256
10241
10242
10251
10256
10253
10241
10222
10204
10196
10200
10208
10209
10199
10188
10189
10203
10218
10227
10232
10246
10270
10289
10286
10261
10234
10226
10236
10245
10235
10213
10198
10202
10215
10217
10208
10206
10232
10279
10322
10338
10331
10325
10336
10352
10352
10328
10295
10276
10276
10279
10268
10241
10214
10196
10184
10175
10173
10191
10225
10254
10257
10234
10211
10213
10234
10243
10217
10168
10137
10148
10195
10243
10267
10269
10261
10246
10219
10177
10136
10120
10138
10174
10208
10227
10236
10241
10238
10222
10194
10165
10146
10139
10140
10148
10167
10200
10240
10280
10319
10370
10442
10535
10637
10739
10838
10933
11018
11085
11132
11158
11157
11106
10989
10813
10615
10442
10310
10202
10091
9981
9905
9892
9940
10012
10073
10110
10132
10149
10160
10161
10157
10161
10179
10202
10218
10218
10211
10204
10204
10210
10220
10229
10230
10216
10192
10175
10179
10204
10230
10236
10226
10215
10217
10226
10228
10224
10229
10257
10300
10329
10324
10292
10257
10237
10230
10225
10221
10227
10248
10271
10280
10270
10254
10250
10265
10285
10294
10289
10273
10253
10235
10226
10232
10254
10282
10302
10303
10292
10285
10291
10311
10338
10361
10374
10369
10344
10308
10280
10277
10304
10346
