122
120
120
120
120
120
120
120
120
120
120
120
120
120
120
122
122
124
124
130
134
136
142
146
156
162
168
176
182
188
194
206
210
214
218
220
222
222
220
218
214
210
204
190
182
172
162
152
132
122
110
100
90
80
70
52
44
34
26
18
4
-1
-9
-13
-19
-29
-33
-37
-39
-43
-45
-47
-47
-45
-43
-39
-35
-23
-15
-7
2
12
24
36
64
78
92
108
124
154
170
184
198
212
236
248
258
266
274
280
284
290
292
292
290
288
282
278
272
266
258
250
242
226
218
208
198
188
168
158
148
138
128
108
98
88
80
70
62
52
34
26
18
12
4
-7
-11
-17
-19
-21
-21
-23
-19
-15
-13
-7
-1
22
34
46
38
30
74
68
60
104
146
206
266
234
326
420
552
686
1016
1172
1330
1468
1608
1956
2306
2288
2254
2220
2192
2166
1482
1060
640
210
-219
-473
-727
-1041
-1065
-1091
-1017
-945
-695
-565
-437
-363
-291
-153
-183
-215
-179
-145
-123
-101
-95
-77
-61
-41
-21
10
24
36
50
62
76
88
112
124
136
146
156
172
180
186
192
196
204
206
208
208
208
208
206
204
202
198
196
192
188
186
184
182
180
180
178
178
180
180
182
184
190
194
198
204
208
220
228
234
242
250
260
270
294
306
320
334
350
340
358
378
400
422
446
470
522
548
576
602
630
684
708
732
754
776
792
806
820
830
842
850
858
868
870
874
874
874
870
864
860
852
844
834
824
802
786
772
778
786
746
722
700
672
646
634
622
544
502
462
418
376
290
248
204
164
122
44
10
-25
-57
-89
-87
-87
-107
-121
-135
-145
-155
-167
-171
-175
-177
-181
-183
-185
-183
-181
-181
-177
-175
-171
-167
-163
-159
-157
-149
-145
-141
-137
-135
-131
-127
-121
-117
-115
-111
-109
-103
-99
-97
-95
-93
-91
-89
-87
-85
-83
-81
-81
-81
-79
-79
-79
-79
-81
-81
-81
-81
-83
-83
-85
-89
-89
-91
-93
-95
-99
-99
-101
-103
-105
-105
-107
-109
-109
-109
-109
-109
-109
-107
-107
-105
-105
-103
-101
-99
-97
-97
-95
-93
-89
-87
-85
-83
-83
-81
-81
-81
-81
-83
-83
-85
-89
-91
-95
-97
-101
-107
-109
-113
-115
-119
-119
-121
-123
-121
-119
-115
-113
-103
-95
-89
-81
-73
-53
-43
-35
-25
-15
-5
4
18
24
30
34
38
38
36
34
30
26
18
10
-7
-17
-27
-37
-49
-71
-81
-91
-99
-109
-123
-127
-133
-135
-137
-137
-139
-135
-131
-127
-121
-115
-103
-95
-89
-81
-73
-65
-57
-43
-35
-29
-21
-15
-3
4
10
18
24
36
44
52
60
68
76
84
102
112
120
130
138
156
166
174
184
192
200
206
222
228
234
240
244
254
258
260
264
266
270
270
270
270
270
270
268
262
258
254
248
242
228
220
212
204
194
184
172
152
140
128
118
106
84
74
62
52
42
34
24
10
4
-1
-5
-9
-15
-15
-17
-17
-17
-11
-7
-3
4
10
20
28
44
56
66
80
94
92
114
136
156
174
168
162
224
268
312
374
436
420
528
638
768
898
1210
1338
1466
1670
1874
2098
2322
2074
1942
1812
1690
1568
686
246
-195
-457
-719
-861
-1005
-975
-741
-507
-503
-499
-205
-197
-189
-157
-127
-131
-121
-111
-85
-59
-49
-41
-21
-13
-7
0
8
20
26
30
34
38
42
44
50
52
54
58
60
66
70
72
76
80
88
94
98
104
108
114
118
126
132
136
140
144
150
154
156
160
162
164
166
172
174
176
180
182
190
196
200
206
212
220
226
244
254
264
276
286
310
324
338
352
368
398
414
430
446
462
478
494
524
538
554
566
580
606
616
626
636
646
652
660
670
674
678
678
680
678
674
672
666
662
648
638
628
616
604
590
578
546
548
550
530
510
464
438
412
398
386
352
318
246
210
172
136
98
30
22
12
-9
-31
-69
-73
-79
-91
-103
-111
-119
-137
-143
-151
-157
-163
-173
-179
-185
-189
-195
-201
-207
-217
-223
-229
-235
-241
-251
-255
-261
-265
-271
-279
-283
-287
-291
-295
-297
-301
-307
-309
-313
-315
-317
-323
-325
-329
-331
-335
-337
-339
-341
-341
-343
-341
-341
-337
-333
-329
-323
-317
-311
-305
-289
-279
-271
-261
-253
-235
-225
-217
-209
-203
-191
-185
-181
-177
-175
-173
-173
-175
-177
-181
-185
-189
-199
-205
-211
-217
-225
-231
-239
-255
-261
-269
-277
-285
-301
-307
-315
-321
-329
-343
-349
-357
-361
-367
-371
-377
-385
-387
-391
-391
-393
-391
-387
-385
-381
-377
-371
-365
-349
-339
-331
-319
-309
-287
-275
-263
-251
-241
-217
-207
-197
-187
-179
-171
-163
-151
-145
-141
-137
-133
-129
-127
-127
-127
-127
-127
-129
-131
-133
-135
-137
-139
-143
-143
-145
-145
-147
-149
-149
-151
-149
-149
-147
-147
-143
-139
-137
-133
-129
-119
-111
-105
-97
-89
-79
-71
-51
-39
-29
-17
-7
14
26
36
48
58
68
76
92
98
104
110
114
120
122
124
126
126
124
124
122
122
120
120
118
116
116
114
114
114
114
114
114
114
112
112
112
108
106
102
98
94
84
78
72
64
56
40
32
22
14
6
-1
-9
-23
-29
-35
-39
-43
-47
-47
-47
-45
-43
-37
-33
-21
-13
-5
6
16
40
52
64
78
90
94
112
130
154
176
198
218
198
232
264
310
358
482
482
484
602
720
850
982
1246
1356
1468
1706
1944
2042
1972
1902
1828
1754
1048
634
220
-105
-433
-657
-881
-1033
-985
-939
-777
-615
-603
-569
-537
-491
-447
-403
-361
-291
-263
-237
-211
-185
-133
-113
-95
-73
-51
-39
-29
-3
6
16
24
32
44
48
50
52
52
52
50
48
46
42
40
36
30
28
24
22
20
18
18
18
18
18
22
24
30
36
40
46
52
68
78
88
100
110
136
152
166
182
198
196
194
234
256
278
324
374
400
426
452
480
506
534
586
612
638
662
686
732
752
774
794
814
840
854
868
880
892
900
910
926
932
938
940
944
948
948
948
946
944
940
936
924
916
908
898
888
866
852
840
824
808
816
798
780
758
738
714
692
642
616
590
562
536
484
458
432
408
384
362
340
286
268
256
244
214
202
188
176
164
152
140
118
108
98
88
78
60
52
42
34
24
10
2
-5
-11
-17
-23
-29
-41
-45
-49
-53
-57
-65
-67
-71
-73
-75
-75
-77
-77
-75
-75
-73
-71
-65
-59
-55
-49
-43
-29
-21
-15
-7
0
8
16
32
40
46
54
60
70
76
80
84
86
88
90
92
92
92
92
92
90
90
88
88
86
84
82
80
80
78
76
74
70
68
64
60
56
48
42
36
30
24
18
10
-5
-13
-21
-29
-37
-51
-57
-65
-69
-73
-79
-79
-81
-79
-77
-73
-69
-55
-45
-37
-25
-13
12
26
40
54
68
82
96
120
132
142
152
160
172
174
176
176
176
172
168
156
148
138
128
116
92
78
64
50
36
8
-5
-21
-35
-49
-63
-77
-105
-119
-135
-147
-161
-189
-201
-215
-227
-239
-249
-261
-281
-287
-295
-299
-303
-305
-303
-301
-295
-291
-273
-261
-251
-237
-225
-211
-197
-169
-155
-141
-129
-119
-99
-93
-87
-83
-81
-81
-81
-89
-95
-103
-111
-119
-141
-151
-163
-175
-187
-209
-219
-229
-237
-247
-253
-261
-271
-275
-281
-283
-287
-291
-293
-295
-295
-297
-299
-301
-303
-303
-305
-307
-309
-311
-311
-313
-313
-315
-315
-313
-313
-309
-307
-303
-301
-291
-283
-277
-269
-261
-243
-231
-219
-205
-193
-177
-163
-133
-133
-135
-115
-95
-49
-29
-9
16
42
52
62
140
192
244
226
208
372
488
606
738
872
1182
1304
1426
1636
1846
2032
2220
1908
1750
1594
1444
1294
438
0
-439
-783
-1127
-1251
-1375
-1411
-1305
-1201
-1043
-887
-611
-593
-577
-539
-503
-527
-499
-471
-469
-469
-465
-461
-447
-443
-441
-435
-431
-427
-425
-423
-421
-419
-417
-415
-411
-407
-403
-399
-395
-381
-371
-363
-353
-345
-319
-303
-287
-293
-299
-277
-255
-203
-195
-187
-149
-113
-35
6
48
90
130
170
208
280
310
342
368
396
444
458
474
498
524
574
598
624
648
674
700
726
778
804
832
858
886
938
962
988
1012
1036
1056
1076
1092
1104
1118
1128
1138
1154
1160
1168
1172
1176
1178
1180
1182
1182
1182
1180
1178
1172
1166
1162
1154
1148
1132
1122
1112
1100
1088
1074
1060
1030
1032
1036
1014
994
946
922
898
872
848
824
800
752
730
708
686
666
626
606
588
568
550
512
492
472
452
432
412
392
348
326
306
286
266
226
208
188
172
154
140
126
98
86
72
62
50
30
22
12
4
-3
-17
-23
-29
-33
-37
-39
-43
-47
-47
-47
-45
-45
-41
-37
-33
-29
-25
-19
-15
-3
2
8
14
20
32
38
42
48
52
60
64
66
68
70
70
70
70
68
66
64
60
52
46
40
34
26
18
10
-9
-19
-31
-41
-53
-79
-91
-105
-119
-133
-147
-161
-189
-203
-217
-229
-241
-265
-275
-285
-293
-303
-315
-319
-325
-327
-329
-329
-329
-327
-323
-319
-313
-309
-297
-291
-285
-279
-273
-267
-261
-249
-245
-241
-237
-235
-233
-233
-233
-235
-237
-243
-245
-249
-253
-257
-261
-267
-275
-279
-283
-287
-293
-299
-301
-305
-307
-311
-313
-317
-323
-325
-327
-329
-331
-335
-337
-339
-339
-341
-341
-339
-337
-335
-333
-327
-323
-309
-299
-291
-279
-267
-239
-223
-207
-209
-211
-189
-167
-119
-95
-73
-49
-27
16
32
46
62
76
102
114
126
136
146
154
162
176
182
188
194
198
208
212
216
220
224
228
232
238
242
244
246
246
248
248
248
248
246
244
242
238
236
232
230
226
220
218
216
216
216
216
218
220
224
228
232
236
248
254
260
266
272
284
290
294
298
304
306
308
308
308
306
304
300
300
300
294
296
296
306
312
318
292
310
328
304
282
366
424
484
470
458
578
698
964
1100
1236
1350
1464
1972
2006
2040
1946
1854
1632
1266
902
458
14
-325
-667
-1151
-1245
-1341
-1309
-1279
-1055
-923
-791
-709
-629
-549
-471
-357
-339
-323
-299
-275
-209
-201
-195
-175
-155
-139
-127
-117
-107
-97
-91
-85
-73
-69
-65
-61
-59
-55
-53
-51
-49
-49
-47
-45
-39
-35
-33
-29
-25
-15
-9
-3
4
12
22
30
48
60
70
82
92
114
126
138
150
162
184
196
208
220
232
244
254
276
288
298
308
318
338
348
360
370
380
390
402
422
432
442
452
464
484
494
504
514
524
544
554
564
572
582
590
598
614
620
626
632
638
644
646
648
648
648
646
644
636
630
624
616
608
590
580
570
558
546
522
508
496
482
470
456
444
418
404
390
376
364
336
322
308
294
280
266
250
218
202
184
180
174
136
116
96
76
56
16
-1
-21
-39
-59
-75
-93
-133
-149
-165
-181
-197
-225
-239
-253
-265
-279
-291
-303
-323
-333
-343
-351
-361
-375
-381
-387
-391
-397
-399
-403
-407
-407
-407
-405
-405
-401
-395
-391
-385
-381
-367
-357
-349
-339
-331
-321
-311
-289
-279
-269
-257
-247
-229
-219
-211
-203
-197
-191
-187
-181
-179
-177
-177
-179
-185
-189
-193
-197
-203
-217
-223
-231
-237
-245
-251
-259
-273
-279
-287
-293
-299
-309
-313
-319
-323
-327
-331
-335
-339
-341
-345
-345
-347
-347
-347
-347
-345
-343
-339
-335
-331
-325
-319
-311
-305
-291
-281
-273
-263
-253
-233
-223
-213
-203
-193
-183
-173
-155
-147
-139
-131
-123
-109
-103
-99
-93
-87
-79
-75
-73
-69
-67
-63
-61
-57
-55
-53
-51
-51
-49
-47
-47
-45
-45
-43
-41
-39
-37
-37
-35
-33
-29
-27
-25
-23
-21
-19
-17
-13
-11
-9
-7
-5
-5
-5
-5
-5
-5
-7
-9
-11
-13
-15
-17
-19
-25
-27
-31
-33
-35
-39
-39
-41
-41
-43
-43
-45
-47
-47
-47
-47
-49
-51
-51
-53
-55
-59
-65
-69
-75
-81
-87
-93
-99
-115
-123
-131
-139
-149
-165
-173
-181
-187
-195
-201
-207
-215
-217
-219
-219
-219
-215
-209
-205
-197
-191
-173
-163
-153
-139
-127
-111
-97
-67
-49
-33
-17
-1
12
32
50
72
92
110
128
176
170
164
200
234
332
324
316
402
488
726
858
990
1124
1258
1358
1458
1966
2036
2108
2054
2002
1888
1534
1180
766
354
2
-349
-669
-751
-833
-823
-815
-581
-555
-529
-525
-521
-491
-463
-395
-365
-337
-333
-329
-299
-285
-273
-261
-249
-233
-227
-223
-219
-215
-211
-209
-205
-205
-205
-203
-203
-203
-203
-203
-201
-199
-197
-195
-189
-183
-179
-171
-165
-151
-141
-133
-123
-113
-91
-79
-67
-55
-43
-31
-19
6
20
32
46
58
86
100
114
128
142
158
172
202
220
236
238
240
276
294
312
332
354
396
418
442
464
486
506
528
570
584
600
614
630
656
666
678
688
698
706
714
728
734
740
744
748
754
756
758
758
760
758
756
754
750
746
740
734
716
704
694
680
668
636
640
646
622
600
576
552
502
476
450
424
400
354
330
308
290
270
254
236
204
190
174
160
144
114
100
86
72
58
30
18
4
-9
-23
-35
-49
-77
-89
-101
-113
-125
-147
-155
-165
-173
-181
-187
-193
-201
-203
-207
-207
-207
-205
-201
-197
-191
-185
-169
-159
-151
-139
-129
-117
-105
-79
-65
-53
-39
-25
2
16
28
40
52
64
74
94
102
110
118
124
134
138
142
146
148
150
152
152
152
152
152
152
150
150
148
148
146
142
140
138
136
132
130
126
120
116
112
108
104
94
90
84
78
72
60
54
46
40
32
26
18
2
-3
-11
-17
-25
-37
-43
-49
-53
-57
-59
-61
-65
-63
-63
-61
-59
-51
-45
-41
-35
-31
-25
-19
-9
-3
0
4
6
10
10
8
6
2
-7
-13
-19
-27
-37
-45
-55
-75
-85
-95
-103
-113
-127
-133
-139
-143
-149
-149
-151
-151
-149
-147
-143
-139
-131
-125
-119
-111
-105
-93
-85
-79
-73
-67
-61
-55
-43
-37
-31
-25
-19
-7
0
6
14
20
28
34
50
58
66
74
82
96
104
110
116
120
126
128
128
126
124
120
116
104
96
88
78
68
46
36
24
12
0
-9
-21
-43
-51
-61
-69
-77
-89
-93
-99
-101
-105
-107
-107
-107
-105
-105
-101
-97
-89
-83
-77
-69
-61
-45
-33
-23
-13
-5
-9
-13
30
54
76
72
68
144
128
110
244
376
388
402
628
752
878
1004
1132
1354
1542
1730
1798
1868
1840
1732
1624
1504
1384
1070
756
56
-229
-515
-689
-865
-977
-941
-907
-801
-695
-683
-673
-669
-649
-629
-603
-579
-533
-513
-493
-481
-471
-437
-421
-405
-389
-373
-355
-339
-303
-283
-265
-239
-213
-181
-165
-151
-137
-125
-113
-103
-83
-75
-67
-61
-55
-49
-47
-45
-45
-45
-47
-49
-51
-53
-57
-61
-65
-73
-77
-81
-85
-89
-97
-99
-103
-105
-107
-109
-111
-113
-113
-113
-111
-109
-105
-101
-97
-91
-85
-73
-63
-55
-45
-35
-23
-11
14
30
46
42
38
76
96
116
140
162
188
212
264
288
312
336
360
384
398
412
422
432
440
448
456
456
456
452
450
440
432
424
414
404
380
366
354
340
328
314
300
272
258
242
228
214
184
170
156
142
128
114
98
72
58
44
32
18
-5
-15
-27
-35
-45
-63
-69
-77
-81
-87
-91
-95
-99
-99
-99
-99
-99
-95
-93
-91
-87
-85
-81
-79
-75
-73
-71
-69
-67
-65
-63
-63
-61
-61
-61
-59
-59
-57
-57
-55
-53
-49
-47
-45
-41
-39
-33
-29
-25
-21
-19
-15
-11
-3
0
4
8
12
20
26
30
36
40
50
56
60
66
72
78
82
92
98
102
106
108
114
116
116
116
114
112
110
102
98
92
86
78
64
56
48
40
30
22
12
-3
-11
-19
-27
-35
-49
-55
-61
-67
-73
-83
-87
-93
-97
-103
-107
-113
-121
-125
-129
-133
-137
-143
-145
-147
-149
-151
-151
-153
-151
-149
-149
-145
-143
-135
-129
-125
-119
-113
-97
-89
-81
-71
-63
-53
-43
-23
-13
-3
6
14
32
40
48
56
62
68
74
82
84
86
88
88
86
84
82
80
76
68
64
58
54
48
44
38
28
24
18
14
10
4
2
-1
-3
-5
-5
-7
-7
-5
-3
-1
0
8
14
20
26
32
48
56
64
72
80
88
96
112
118
122
126
130
134
134
132
128
124
118
110
90
78
66
52
38
8
-7
-23
-39
-57
-73
-89
-121
-135
-149
-161
-175
-195
-203
-211
-215
-219
-221
-221
-221
-217
-213
-201
-191
-221
-199
-179
-153
-127
-171
-125
-79
-15
48
130
212
278
398
520
666
812
1136
1274
1414
1636
1860
2290
2230
2172
2090
2008
1922
1836
1042
576
112
-321
-755
-1057
-1089
-1123
-1025
-929
-795
-663
-607
-501
-397
-371
-347
-307
-273
-241
-243
-245
-199
-197
-197
-189
-181
-175
-169
-163
-159
-157
-155
-155
-155
-155
-155
-153
-153
-151
-149
-145
-139
-135
-129
-123
-105
-95
-85
-73
-61
-35
-21
-7
8
22
38
52
82
98
112
126
138
164
176
188
200
210
222
232
252
262
272
284
294
314
326
338
350
362
376
390
420
436
452
468
484
498
518
538
556
576
616
634
654
672
692
710
728
762
780
798
816
834
878
892
908
920
934
946
958
976
982
988
990
994
996
992
988
978
970
942
956
972
948
926
916
908
832
792
754
712
672
590
548
508
466
426
386
348
276
242
208
178
148
126
102
78
56
34
-5
-19
-35
-49
-63
-75
-89
-111
-119
-127
-133
-141
-149
-151
-153
-153
-153
-149
-147
-141
-135
-131
-125
-119
-107
-99
-93
-87
-83
-73
-69
-67
-65
-63
-61
-61
-65
-67
-69
-73
-77
-87
-91
-97
-101
-107
-113
-119
-127
-131
-137
-139
-143
-149
-151
-155
-155
-157
-159
-161
-163
-163
-165
-165
-165
-167
-167
-167
-167
-167
-167
-165
-165
-163
-161
-159
-157
-149
-143
-139
-133
-127
-113
-105
-97
-87
-79
-69
-59
-39
-29
-19
-9
-1
16
24
30
36
40
48
50
50
50
48
46
42
32
24
16
8
0
-19
-29
-39
-49
-61
-71
-83
-103
-113
-123
-131
-139
-155
-161
-167
-171
-175
-183
-185
-187
-187
-189
-189
-189
-185
-183
-181
-177
-175
-169
-165
-161
-155
-151
-147
-143
-133
-127
-123
-117
-113
-105
-101
-97
-93
-89
-83
-79
-77
-75
-73
-71
-69
-65
-63
-63
-61
-61
-59
-57
-57
-55
-55
-53
-53
-51
-49
-49
-49
-49
-49
-49
-49
-49
-51
-53
-55
-59
-61
-65
-67
-71
-77
-79
-81
-81
-83
-81
-77
-75
-69
-65
-57
-51
-31
-21
-11
0
10
34
46
56
66
76
84
92
104
108
112
114
116
118
114
110
106
102
104
102
98
104
110
100
88
-1
28
58
110
160
98
208
316
456
598
762
926
1224
1346
1470
1770
2070
2022
1968
1914
1874
1834
1154
736
320
-29
-379
-619
-861
-1025
-979
-933
-763
-593
-563
-491
-419
-359
-299
-247
-197
-177
-175
-175
-149
-123
-101
-89
-77
-69
-63
-49
-43
-37
-33
-29
-27
-25
-23
-21
-21
-21
-21
-21
-21
-21
-19
-19
-17
-17
-13
-11
-9
-5
-3
4
10
14
20
26
34
40
56
64
72
82
92
112
124
134
146
158
184
196
208
222
234
248
260
286
298
310
322
336
360
370
382
392
404
414
424
446
454
464
474
484
502
510
520
528
538
556
564
574
582
592
600
610
626
634
644
650
658
672
676
682
686
690
692
694
694
692
690
684
678
662
650
640
626
612
630
610
590
566
544
518
494
440
410
382
348
316
278
254
228
206
182
162
140
102
86
70
54
38
8
-5
-19
-33
-47
-71
-83
-95
-105
-117
-127
-139
-157
-165
-173
-179
-187
-197
-199
-203
-205
-207
-205
-205
-201
-197
-195
-189
-185
-175
-167
-161
-155
-149
-141
-135
-121
-115
-109
-103
-99
-89
-85
-83
-81
-79
-77
-77
-79
-81
-83
-87
-93
-105
-111
-119
-127
-137
-159
-169
-181
-193
-205
-215
-227
-249
-259
-269
-277
-285
-299
-303
-307
-307
-309
-309
-307
-305
-301
-297
-291
-285
-273
-267
-261
-255
-249
-239
-233
-229
-225
-223
-219
-217
-215
-213
-213
-211
-211
-211
-211
-211
-209
-209
-207
-205
-203
-199
-197
-193
-191
-183
-177
-173
-169
-165
-155
-151
-147
-143
-141
-139
-137
-135
-135
-137
-137
-139
-143
-145
-149
-153
-157
-165
-169
-173
-177
-181
-185
-189
-197
-199
-203
-205
-209
-213
-215
-217
-219
-221
-221
-223
-223
-221
-221
-219
-217
-211
-205
-201
-193
-187
-179
-171
-153
-141
-131
-119
-109
-85
-73
-61
-49
-39
-17
-9
-1
6
12
18
22
26
26
26
24
22
14
8
2
-5
-13
-21
-29
-47
-57
-67
-75
-85
-103
-111
-121
-129
-137
-153
-159
-167
-173
-181
-187
-193
-203
-207
-213
-217
-223
-231
-233
-237
-239
-241
-241
-241
-237
-231
-227
-221
-215
-199
-185
-173
-183
-195
-151
-121
-93
-97
-103
-65
-27
68
130
190
266
340
372
478
584
720
856
1014
1174
1456
1570
1686
2010
2334
2234
2162
2092
2018
1944
1204
752
-121
-545
-713
-883
-999
-923
-847
-699
-553
-247
-157
-67
16
98
14
-69
-21
-39
-59
-45
-33
-29
-31
-35
-29
-23
-19
-15
0
10
18
28
38
60
74
86
98
110
134
146
158
170
180
188
196
210
216
220
222
224
224
224
222
218
214
210
206
194
188
182
178
172
162
158
154
152
148
148
150
150
154
156
162
166
182
192
202
214
226
256
272
288
288
286
306
326
372
396
420
446
472
522
548
574
596
620
646
660
674
684
696
702
710
720
720
722
718
716
704
694
686
674
662
648
634
602
600
600
578
558
510
484
458
446
434
370
336
266
230
192
152
74
36
-1
-35
-71
-87
-109
-133
-151
-171
-177
-185
-209
-217
-227
-235
-243
-257
-263
-269
-273
-279
-283
-287
-293
-297
-301
-303
-307
-313
-315
-319
-321
-323
-327
-327
-329
-329
-329
-327
-325
-319
-315
-311
-305
-299
-287
-279
-271
-263
-255
-247
-239
-225
-217
-211
-203
-197
-189
-185
-181
-177
-175
-173
-171
-171
-169
-169
-167
-165
-161
-157
-155
-149
-145
-131
-123
-115
-103
-93
-81
-69
-43
-29
-15
-1
12
40
54
66
78
88
106
114
120
126
130
132
134
132
130
126
122
116
100
92
82
72
60
48
36
12
0
-13
-25
-37
-61
-73
-85
-93
-103
-121
-127
-133
-137
-141
-143
-145
-143
-139
-137
-131
-125
-109
-99
-91
-79
-67
-55
-43
-17
-3
8
22
34
56
68
78
86
94
102
108
116
118
120
120
120
118
114
110
106
100
88
82
74
68
60
52
44
30
24
16
10
4
-5
-9
-13
-15
-19
-21
-23
-23
-21
-21
-19
-17
-9
-3
0
6
12
24
32
40
48
56
64
72
88
98
106
114
120
134
140
146
150
154
156
158
160
158
156
154
150
138
130
122
112
102
80
68
56
44
30
18
4
-21
-33
-47
-59
-71
-93
-103
-113
-121
-129
-135
-141
-151
-153
-155
-155
-155
-153
-147
-141
-137
-133
-113
-121
-129
-105
-81
-89
-97
0
-31
-65
12
88
324
490
658
850
1042
1240
1438
2100
2308
2516
2610
2704
2542
2298
2056
1710
1366
1002
638
-53
-221
-391
-487
-585
-589
-459
-329
-339
-349
-365
-361
-357
-343
-331
-319
-307
-303
-301
-299
-295
-293
-287
-285
-283
-281
-281
-277
-275
-269
-265
-261
-255
-251
-239
-231
-223
-213
-205
-185
-173
-163
-151
-139
-125
-113
-85
-71
-57
-41
-27
0
14
28
42
56
70
82
108
120
130
140
150
168
178
186
194
200
212
218
224
230
234
240
244
254
260
264
270
276
288
296
308
314
322
330
346
354
364
374
384
404
414
426
438
450
474
488
502
516
530
546
562
592
608
624
640
656
686
700
714
724
736
748
760
774
776
778
774
772
750
768
788
814
840
802
766
674
628
582
514
446
320
266
210
162
112
46
4
-39
-77
-115
-117
-119
-163
-169
-175
-187
-199
-217
-221
-227
-231
-235
-237
-241
-243
-241
-241
-239
-239
-235
-233
-231
-229
-227
-223
-221
-219
-217
-215
-213
-211
-207
-205
-205
-203
-201
-199
-197
-197
-195
-195
-195
-195
-195
-195
-197
-199
-203
-209
-213
-219
-225
-233
-247
-255
-265
-275
-285
-295
-307
-329
-339
-349
-359
-371
-391
-399
-407
-413
-421
-425
-431
-439
-439
-441
-441
-441
-437
-433
-431
-425
-421
-409
-403
-397
-389
-383
-377
-371
-357
-351
-345
-339
-335
-325
-319
-315
-311
-307
-303
-299
-291
-287
-285
-281
-277
-269
-265
-261
-255
-251
-247
-243
-233
-229
-225
-221
-217
-211
-207
-205
-203
-201
-201
-201
-201
-203
-205
-207
-209
-215
-217
-221
-223
-227
-233
-235
-237
-237
-239
-237
-237
-233
-229
-227
-221
-217
-205
-197
-191
-183
-175
-159
-149
-141
-133
-125
-117
-109
-95
-89
-85
-79
-75
-69
-67
-67
-67
-67
-69
-71
-79
-83
-89
-95
-101
-115
-121
-129
-137
-145
-159
-165
-173
-179
-185
-189
-195
-201
-203
-205
-205
-205
-203
-199
-197
-191
-187
-181
-175
-159
-151
-143
-133
-123
-103
-93
-83
-73
-63
-41
-31
-23
-13
-5
2
8
20
24
28
32
34
32
30
28
24
18
12
6
-11
-21
-31
-41
-53
-77
-89
-101
-111
-121
-131
-141
-153
-157
-161
-163
-167
-165
-157
-151
-137
-123
-153
-133
-113
-119
-125
-85
-47
48
108
168
182
196
350
454
560
686
814
950
1088
1346
1560
1776
1896
2018
2066
1964
1862
1746
1632
850
412
-25
-265
-505
-627
-749
-685
-491
-299
-299
-301
-253
-215
-179
-145
-111
-91
-71
-127
-117
-109
-103
-97
-91
-89
-89
-91
-93
-95
-95
-97
-99
-101
-103
-107
-111
-113
-117
-119
-121
-123
-123
-125
-123
-123
-121
-121
-115
-111
-107
-101
-95
-81
-73
-67
-57
-49
-29
-17
-7
4
14
26
38
62
74
86
98
108
132
144
154
166
176
186
196
214
224
232
242
250
266
274
282
290
296
310
326
334
342
350
358
374
382
390
398
406
422
430
438
444
452
458
464
474
478
482
484
486
488
486
486
482
480
474
470
456
446
438
426
416
390
374
360
344
328
326
306
286
264
242
220
196
150
126
102
80
56
10
-11
-33
-53
-75
-95
-117
-157
-173
-191
-205
-221
-249
-259
-271
-279
-289
-305
-309
-315
-319
-323
-325
-327
-327
-325
-323
-321
-319
-311
-307
-303
-299
-295
-289
-285
-277
-273
-269
-265
-261
-253
-249
-245
-241
-239
-233
-229
-227
-225
-223
-219
-217
-211
-207
-205
-203
-201
-195
-191
-189
-187
-185
-183
-181
-179
-177
-177
-175
-175
-175
-175
-177
-177
-179
-181
-183
-187
-189
-193
-195
-197
-201
-203
-205
-205
-207
-209
-209
-209
-207
-207
-205
-205
-201
-197
-195
-191
-189
-183
-179
-177
-175
-173
-171
-169
-165
-163
-163
-163
-163
-165
-167
-169
-171
-173
-177
-179
-183
-185
-187
-189
-191
-195
-193
-193
-191
-191
-185
-179
-175
-167
-161
-151
-143
-123
-111
-99
-85
-71
-43
-27
-13
0
14
44
58
72
86
100
112
124
148
158
168
176
184
200
206
212
218
224
228
232
238
242
246
248
250
256
258
260
262
264
270
274
276
278
280
284
286
292
296
298
300
310
314
318
322
326
330
336
350
358
366
374
384
408
420
434
450
466
460
456
496
518
542
568
594
648
680
712
744
776
814
838
864
886
908
916
924
950
958
968
974
980
986
986
988
986
984
978
974
960
952
944
934
924
902
890
880
868
856
832
820
810
798
788
776
766
746
738
730
722
716
704
700
698
696
696
696
696
702
704
708
722
736
768
764
760
752
744
814
796
778
910
1044
1044
1044
1278
1428
1580
1690
1802
2290
2544
2798
3004
3212
3308
3406
3298
3082
2866
2548
2230
1488
1140
794
640
488
334
340
348
444
540
538
536
582
598
614
636
660
706
718
732
746
762
776
790
816
826
838
848
858
876
884
894
902
910
918
928
944
954
964
974
984
1006
1018
1030
1044
1058
1086
1102
1118
1134
1152
1158
1164
1204
1228
1252
1268
1284
1314
1326
1340
1350
1360
1368
1378
1390
1392
1396
1396
1398
1396
1392
1390
1384
1380
1370
1362
1356
1350
1344
1336
1330
1318
1314
1310
1306
1302
1298
1298
1298
1300
1302
1304
1308
1320
1326
1334
1344
1354
1376
1388
1400
1414
1428
1456
1470
1486
1500
1514
1528
1542
1566
1576
1588
1596
1606
1618
1622
1626
1624
1624
1620
1618
1604
1592
1582
1566
1552
1574
1550
1528
1502
1476
1438
1400
1362
1324
1286
1248
1210
1136
1100
1064
1030
998
934
906
878
860
844
818
794
748
726
706
686
668
644
630
616
604
592
582
574
558
552
546
542
538
532
528
526
524
524
522
520
520
518
516
514
512
506
500
496
490
484
468
458
450
438
428
414
402
374
358
344
328
314
284
270
254
240
226
200
190
178
168
158
152
144
132
130
126
124
122
122
124
124
128
130
134
136
144
148
152
156
160
166
170
174
178
180
184
186
186
188
188
188
188
184
182
180
178
174
168
164
160
156
152
150
146
140
138
136
136
134
136
138
140
144
148
160
168
176
186
196
208
218
242
256
268
282
296
322
336
350
362
376
388
400
422
430
440
448
458
472
478
484
488
492
496
502
510
514
520
524
530
542
548
556
564
572
590
598
608
616
626
634
644
658
664
672
676
680
684
684
684
682
680
676
672
662
656
650
644
638
626
620
616
612
608
604
604
604
606
608
610
614
624
628
634
640
648
662
668
676
682
688
694
700
710
714
718
720
724
726
726
728
726
726
722
718
714
708
704
698
692
676
666
656
644
634
608
594
580
564
550
534
520
488
472
456
440
426
396
382
368
354
342
316
306
296
286
276
268
258
242
236
228
222
216
208
206
202
202
202
200
198
202
210
216
224
232
262
254
246
228
208
248
286
392
392
392
478
564
790
918
1046
1180
1316
1564
1654
1746
1944
2144
2146
2148
1940
1842
1744
1388
1032
190
-119
-431
-621
-811
-833
-855
-645
-503
-361
-337
-315
-225
-179
-133
-99
-65
-31
-49
-69
-55
-41
-29
-19
-5
0
4
8
12
24
28
32
38
42
46
50
56
60
64
68
72
80
84
86
88
90
92
94
94
92
90
88
84
74
68
62
54
44
24
14
2
-7
-19
-31
-43
-67
-77
-87
-95
-103
-117
-119
-123
-123
-125
-121
-115
-109
-99
-91
-79
-69
-41
-23
-7
-5
-5
38
60
82
106
128
152
176
224
248
270
292
314
356
376
398
410
424
436
450
472
480
488
492
498
502
500
500
496
492
478
466
456
442
430
414
400
406
384
364
340
316
268
242
214
192
168
136
104
40
10
-21
-51
-83
-141
-157
-175
-199
-223
-267
-285
-305
-313
-323
-335
-347
-369
-377
-385
-391
-399
-409
-411
-415
-417
-419
-421
-423
-425
-425
-427
-427
-429
-431
-433
-435
-437
-441
-449
-455
-461
-467
-473
-479
-487
-503
-511
-519
-527
-535
-551
-557
-565
-571
-577
-581
-587
-595
-597
-599
-599
-601
-601
-599
-599
-597
-595
-591
-589
-587
-585
-583
-579
-577
-573
-571
-569
-565
-563
-557
-553
-551
-547
-543
-537
-533
-523
-517
-511
-505
-499
-485
-479
-473
-465
-459
-453
-449
-439
-435
-431
-427
-425
-423
-421
-421
-421
-423
-425
-425
-427
-429
-431
-433
-435
-439
-441
-443
-445
-447
-449
-449
-451
-453
-455
-455
-457
-459
-459
-461
-463
-465
-467
-467
-469
-469
-471
-473
-471
-471
-469
-469
-465
-463
-455
-451
-447
-441
-435
-421
-413
-407
-399
-391
-383
-377
-363
-357
-351
-345
-341
-333
-329
-327
-323
-321
-319
-317
-317
-315
-315
-315
-315
-315
-315
-315
-315
-317
-317
-317
-319
-319
-321
-321
-323
-325
-327
-329
-329
-331
-331
-331
-331
-329
-327
-319
-313
-309
-301
-293
-283
-275
-251
-237
-223
-207
-193
-161
-143
-127
-109
-93
-77
-61
-33
-21
-9
0
10
24
28
32
32
32
30
26
14
6
-3
-15
-27
-53
-67
-83
-97
-113
-145
-159
-175
-189
-203
-215
-229
-249
-257
-267
-273
-281
-289
-289
-291
-289
-289
-285
-283
-273
-265
-259
-249
-241
-219
-205
-193
-177
-163
-133
-133
-135
-117
-99
-77
-55
-3
22
46
50
54
126
174
220
280
338
334
330
534
656
780
914
1050
1342
1536
1730
1832
1934
2220
1998
1778
1670
1564
1252
942
240
-47
-337
-521
-707
-849
-831
-815
-697
-581
-577
-575
-519
-479
-441
-401
-361
-287
-267
-249
-207
-165
-111
-99
-87
-63
-41
-21
-1
36
54
72
86
100
128
140
152
162
172
182
190
204
210
214
218
222
224
226
226
226
224
222
220
214
212
208
204
200
194
192
188
186
184
182
184
184
186
188
192
196
206
214
220
228
236
256
268
278
290
314
328
356
370
384
398
414
446
462
478
484
490
524
542
560
578
598
616
636
676
698
722
736
752
780
792
806
816
826
832
840
850
850
852
848
846
834
826
818
804
792
814
792
772
748
726
698
672
642
604
568
530
492
414
376
338
266
232
198
136
128
120
98
76
54
40
26
16
4
-11
-19
-27
-33
-41
-47
-53
-63
-67
-73
-77
-81
-91
-95
-101
-105
-109
-113
-119
-127
-129
-133
-135
-137
-139
-139
-139
-137
-135
-131
-129
-123
-117
-113
-107
-103
-93
-89
-85
-81
-77
-69
-65
-63
-61
-59
-57
-57
-53
-51
-51
-49
-49
-45
-41
-39
-35
-33
-29
-25
-17
-11
-5
0
4
16
22
28
34
38
46
50
54
56
58
60
60
60
58
56
54
50
40
34
28
22
14
8
0
-17
-25
-35
-45
-55
-75
-85
-95
-103
-113
-133
-141
-151
-159
-169
-177
-185
-199
-205
-211
-217
-223
-229
-231
-235
-235
-237
-237
-237
-235
-231
-229
-225
-223
-215
-209
-205
-201
-197
-191
-189
-187
-185
-185
-185
-185
-189
-193
-197
-201
-207
-219
-225
-231
-237
-245
-251
-259
-269
-273
-279
-281
-285
-287
-285
-285
-283
-281
-277
-275
-267
-261
-257
-251
-247
-239
-233
-229
-225
-221
-215
-211
-209
-207
-205
-203
-201
-197
-195
-193
-191
-189
-183
-179
-175
-171
-167
-161
-157
-149
-143
-137
-131
-127
-119
-115
-111
-107
-105
-103
-103
-103
-105
-107
-111
-115
-125
-131
-139
-147
-155
-173
-181
-191
-201
-211
-221
-231
-249
-257
-265
-271
-279
-289
-293
-299
-301
-305
-307
-307
-309
-307
-307
-305
-303
-297
-293
-291
-285
-281
-269
-261
-255
-247
-239
-229
-221
-197
-183
-171
-157
-145
-113
-113
-113
-93
-73
-23
-1
20
28
34
62
88
166
222
276
266
254
416
532
650
802
954
1102
1250
1522
1870
2218
2234
2252
2216
2214
2212
1854
1496
1056
616
-303
-543
-785
-905
-1027
-973
-867
-761
-697
-633
-585
-545
-505
-465
-427
-395
-365
-321
-311
-303
-279
-255
-213
-193
-175
-157
-139
-125
-111
-83
-69
-57
-45
-35
-15
-5
2
10
16
30
36
42
48
54
58
62
70
74
78
82
86
92
96
98
100
102
106
108
114
118
120
124
126
136
142
146
152
158
174
184
194
206
218
232
246
278
274
268
288
308
356
382
408
436
464
490
518
572
596
622
646
670
712
730
750
760
772
802
814
828
838
850
860
870
888
896
906
912
920
934
940
946
950
956
960
964
970
970
972
972
972
966
960
954
946
938
928
918
890
900
912
892
872
824
796
770
750
730
650
610
572
534
498
488
480
432
412
394
388
382
358
348
340
330
322
314
308
298
292
286
280
274
260
254
246
238
230
212
202
192
184
174
164
154
136
128
118
112
104
92
88
82
80
76
76
74
76
78
80
84
88
98
104
110
118
126
142
152
162
172
182
194
204
224
236
246
258
268
286
294
308
316
320
326
334
334
334
332
332
324
316
310
292
270
256
242
228
214
198
182
148
132
116
100
82
52
38
22
10
-3
-15
-27
-49
-59
-69
-77
-87
-103
-111
-119
-125
-131
-137
-143
-155
-159
-165
-169
-173
-181
-183
-187
-189
-191
-193
-193
-193
-193
-193
-193
-193
-191
-191
-191
-191
-191
-193
-195
-199
-201
-205
-211
-217
-229
-237
-245
-253
-261
-281
-289
-299
-307
-317
-333
-341
-349
-355
-361
-365
-369
-375
-377
-379
-379
-381
-379
-377
-377
-375
-375
-373
-371
-365
-363
-361
-359
-357
-351
-347
-343
-339
-335
-327
-321
-315
-307
-301
-293
-285
-267
-257
-249
-239
-229
-211
-201
-191
-181
-173
-165
-157
-143
-137
-133
-127
-123
-117
-115
-113
-113
-113
-113
-115
-117
-119
-123
-127
-131
-141
-145
-151
-157
-163
-177
-183
-191
-197
-205
-211
-217
-229
-235
-241
-245
-249
-255
-257
-259
-259
-259
-257
-257
-251
-247
-243
-237
-231
-217
-209
-201
-191
-183
-163
-151
-141
-129
-119
-105
-93
-71
-57
-45
-27
-11
14
18
22
44
64
58
50
118
170
220
190
160
344
474
604
760
916
1198
1440
1682
1886
2090
2034
1980
1836
1758
1680
1324
968
88
-253
-597
-713
-831
-855
-881
-737
-633
-529
-505
-481
-403
-359
-317
-281
-247
-199
-207
-215
-195
-177
-157
-139
-111
-99
-89
-77
-67
-45
-33
-23
-13
-3
6
14
32
42
50
58
64
78
84
90
96
100
108
112
116
120
122
124
126
132
134
136
140
142
150
156
160
166
172
180
186
206
218
230
244
256
288
284
280
322
344
368
418
444
470
494
520
566
574
584
598
612
634
642
652
658
664
668
672
678
680
682
682
684
686
686
688
690
692
694
696
702
704
708
710
712
718
718
720
720
720
718
714
710
704
698
688
680
660
646
634
620
606
574
558
542
524
508
490
474
442
426
412
398
386
360
348
338
328
318
294
286
280
272
266
258
246
240
234
228
222
212
208
202
198
194
190
186
178
176
172
170
168
164
162
160
158
156
154
154
152
152
150
150
148
146
146
146
146
146
148
150
150
154
156
160
162
170
176
180
186
192
206
212
218
226
234
242
248
260
266
272
278
282
288
290
290
290
288
282
278
272
266
258
248
238
214
200
186
172
156
122
116
108
88
68
48
28
-11
-29
-49
-63
-79
-107
-119
-131
-141
-153
-169
-175
-181
-183
-187
-187
-189
-185
-179
-173
-165
-157
-135
-121
-109
-93
-77
-79
-81
-35
-9
14
40
64
96
110
124
136
146
162
166
168
168
168
166
162
148
138
128
118
106
80
68
54
42
28
16
4
-15
-23
-33
-39
-45
-55
-57
-61
-61
-63
-63
-61
-61
-59
-57
-55
-55
-51
-49
-49
-47
-45
-43
-41
-41
-39
-37
-35
-33
-29
-25
-23
-19
-15
-7
-1
2
8
12
18
24
34
38
42
46
50
58
60
62
64
64
66
66
64
64
62
60
58
54
52
48
46
44
40
38
36
34
32
32
30
28
28
28
28
26
26
26
26
26
24
24
24
22
22
20
20
18
16
16
14
14
14
14
16
16
18
18
20
22
26
28
30
32
34
38
40
40
40
40
38
38
36
34
30
28
26
20
20
18
16
12
12
12
10
20
30
42
54
36
14
-9
26
60
24
156
288
310
332
546
668
792
920
1048
1168
1288
1396
1640
1884
1912
1942
1796
1710
1624
1320
1018
666
316
-269
-465
-661
-739
-817
-783
-649
-517
-501
-485
-485
-485
-447
-421
-395
-371
-347
-353
-345
-339
-333
-327
-319
-317
-317
-317
-319
-321
-325
-331
-333
-337
-339
-341
-345
-345
-345
-343
-343
-339
-335
-323
-313
-305
-293
-283
-257
-241
-227
-229
-231
-191
-169
-147
-123
-101
-77
-55
-7
16
40
62
84
128
144
160
174
188
202
214
236
246
254
262
268
280
286
290
294
298
304
308
312
318
324
330
338
356
366
378
390
404
436
432
428
448
470
494
520
572
598
624
650
678
732
756
782
804
828
872
884
898
912
926
938
950
968
972
978
980
982
978
974
970
962
954
940
928
952
930
910
884
858
842
802
764
720
678
632
588
494
448
402
358
316
240
242
244
222
198
160
150
140
128
114
104
92
70
60
48
38
28
10
0
-9
-17
-27
-35
-43
-59
-65
-71
-75
-81
-87
-87
-89
-87
-87
-81
-77
-73
-67
-61
-55
-49
-35
-29
-23
-19
-15
-9
-9
-9
-11
-13
-17
-21
-35
-43
-53
-63
-75
-99
-111
-123
-135
-147
-171
-181
-193
-203
-215
-223
-233
-249
-255
-263
-269
-275
-285
-289
-293
-295
-299
-301
-305
-307
-307
-307
-305
-303
-297
-293
-289
-281
-275
-259
-249
-241
-229
-219
-207
-197
-173
-161
-149
-139
-129
-109
-101
-93
-87
-81
-77
-73
-69
-69
-69
-71
-73
-81
-85
-91
-97
-105
-111
-119
-137
-145
-153
-161
-169
-185
-193
-201
-207
-215
-229
-235
-241
-247
-253
-257
-263
-271
-275
-279
-283
-287
-293
-295
-299
-301
-303
-303
-305
-307
-307
-307
-307
-307
-305
-303
-301
-299
-299
-297
-295
-295
-293
-293
-293
-295
-297
-299
-301
-303
-307
-313
-317
-321
-325
-329
-333
-337
-343
-345
-349
-351
-355
-359
-359
-361
-361
-363
-365
-365
-367
-367
-369
-371
-373
-377
-379
-383
-385
-389
-397
-401
-405
-409
-413
-415
-417
-421
-421
-421
-419
-417
-409
-401
-395
-385
-377
-355
-341
-329
-315
-301
-285
-271
-243
-227
-213
-199
-187
-163
-153
-145
-137
-131
-127
-125
-123
-123
-125
-129
-135
-147
-155
-165
-175
-185
-195
-205
-227
-237
-249
-257
-267
-283
-289
-295
-299
-303
-305
-303
-301
-295
-291
-285
-279
-259
-243
-227
-211
-197
-205
-177
-151
-151
-153
-105
-59
52
32
10
122
234
542
644
746
1024
1302
1652
1982
2314
2440
2568
2540
2514
2138
1842
1546
1146
748
86
-165
-417
-559
-701
-745
-791
-777
-683
-591
-549
-507
-501
-461
-421
-381
-343
-273
-271
-271
-249
-229
-211
-193
-161
-143
-125
-111
-97
-63
-61
-61
-45
-31
-13
2
40
62
82
104
126
174
198
220
242
264
296
310
324
338
352
364
378
398
406
416
424
432
446
452
458
464
470
474
480
490
496
502
506
512
522
528
534
540
546
552
560
576
584
592
600
610
630
640
652
664
678
706
722
738
754
772
772
772
812
834
858
882
908
962
974
988
1024
1060
1098
1138
1218
1256
1296
1306
1316
1362
1362
1362
1372
1382
1392
1392
1392
1388
1386
1378
1370
1348
1334
1320
1324
1330
1284
1260
1236
1210
1186
1160
1136
1084
1060
1036
1012
988
944
922
902
888
874
846
834
824
814
806
798
792
786
784
784
784
786
792
796
802
808
814
820
826
840
844
850
854
860
866
866
868
868
868
862
858
854
848
842
834
826
810
800
792
782
774
756
746
738
728
720
712
704
690
682
676
670
664
654
648
642
638
634
628
624
616
612
608
604
602
596
594
592
590
588
588
588
588
588
590
592
596
602
606
610
614
620
628
632
638
642
648
650
654
660
662
664
664
666
666
664
662
658
656
646
640
636
628
622
614
606
590
580
572
562
554
534
522
512
502
492
480
470
450
440
430
420
410
390
382
374
366
358
344
338
334
330
326
322
320
318
318
318
320
322
330
334
340
346
352
358
366
382
390
400
408
418
438
448
458
466
476
496
504
514
522
530
538
548
564
570
578
584
592
604
608
614
618
622
626
630
634
636
638
638
638
636
634
632
628
626
622
620
612
608
604
598
594
586
582
580
576
574
572
570
570
570
572
574
576
582
586
592
596
602
616
622
630
636
644
650
658
670
674
680
682
686
690
688
688
684
682
670
662
654
644
634
622
610
580
564
550
532
516
484
466
450
434
420
404
390
364
352
342
334
326
314
310
306
304
304
308
312
318
324
332
340
356
366
378
392
406
406
426
448
468
488
480
472
536
582
628
688
748
750
856
962
1088
1214
1482
1608
1734
1938
2142
2244
2348
2374
2274
2176
2072
1970
1254
840
428
76
-277
-435
-593
-723
-675
-629
-485
-341
-315
-283
-253
-215
-177
-143
-111
-69
-81
-95
-79
-65
-37
-25
-13
-1
8
28
42
54
68
82
96
110
138
152
166
182
196
224
238
250
262
272
282
292
306
310
316
318
322
324
322
320
316
312
296
288
280
270
260
250
230
218
206
196
184
162
152
140
130
120
112
102
88
84
78
76
72
72
76
78
84
90
106
118
130
144
156
172
188
222
230
238
262
284
322
336
350
362
374
382
392
402
404
406
404
402
390
380
370
356
342
360
338
316
292
268
242
216
162
132
100
70
38
-19
-39
-61
-87
-113
-137
-163
-209
-229
-251
-265
-281
-311
-323
-337
-347
-357
-363
-371
-383
-385
-387
-387
-387
-381
-375
-371
-365
-359
-341
-331
-321
-309
-297
-285
-273
-249
-237
-225
-213
-201
-179
-169
-159
-151
-143
-135
-129
-119
-115
-113
-111
-111
-113
-115
-117
-119
-123
-133
-137
-143
-149
-155
-161
-167
-177
-183
-189
-193
-199
-209
-213
-217
-219
-221
-223
-225
-225
-223
-221
-217
-213
-203
-195
-187
-177
-169
-145
-131
-119
-103
-89
-73
-57
-25
-9
6
22
38
70
84
98
110
122
134
146
166
174
182
190
198
212
218
224
230
236
248
254
260
268
274
282
290
306
316
326
336
348
372
386
402
416
432
432
434
470
490
510
532
554
600
624
648
672
696
720
744
788
810
832
844
858
884
896
908
916
926
940
944
948
950
954
954
956
958
958
958
958
958
962
966
970
974
978
986
994
1012
1026
1042
1032
1024
1076
1080
1084
1126
1168
1174
1242
1312
1396
1480
1576
1672
1872
1968
2064
2148
2234
2462
2428
2396
2432
2470
2496
2522
2496
2512
2530
2536
2544
2564
2570
2578
2582
2588
2600
2604
2608
2610
2612
2612
2614
2612
2608
2604
2598
2594
2580
2570
2562
2550
2540
2526
2514
2484
2466
2450
2434
2418
2408
2388
2368
2346
2326
2280
2254
2230
2228
2226
2196
2166
2092
2050
2008
1960
1914
1816
1768
1720
1674
1630
1590
1552
1486
1490
1496
1474
1454
1430
1416
1402
1390
1380
1370
1362
1340
1330
1320
1310
1300
1282
1272
1264
1254
1246
1230
1220
1210
1202
1196
1194
1194
1188
1196
1204
1190
1176
1090
1126
1162
1222
1282
1252
1224
1456
1612
1770
1956
2144
2478
2614
2750
3162
3574
3438
3338
3238
3178
3120
2592
2064
1066
594
122
-107
-337
-357
-219
-83
36
156
282
406
432
466
500
492
484
532
518
504
508
512
516
514
512
510
508
504
500
488
482
476
468
460
442
432
424
414
404
394
384
364
352
342
332
322
304
296
288
282
274
262
258
252
250
248
248
246
250
254
258
266
272
290
300
310
322
334
348
364
394
408
424
440
456
486
500
516
530
544
554
566
588
596
606
612
620
630
634
638
640
644
646
646
646
646
646
644
642
638
636
634
630
628
620
616
612
608
604
598
594
582
574
568
560
554
536
526
518
508
498
474
460
448
434
420
406
392
360
344
328
312
296
278
260
240
222
204
186
168
134
118
100
84
68
34
18
2
-15
-33
-71
-91
-111
-131
-153
-175
-199
-245
-267
-291
-313
-335
-365
-379
-393
-403
-415
-423
-433
-447
-451
-457
-459
-461
-461
-459
-457
-453
-451
-443
-437
-433
-427
-423
-415
-409
-395
-385
-377
-367
-357
-333
-319
-307
-289
-273
-281
-289
-247
-223
-199
-171
-145
-101
-61
-21
18
56
68
80
128
148
168
176
182
206
214
222
230
238
248
252
256
260
262
264
266
270
272
272
274
276
278
280
282
284
284
286
286
288
288
288
288
288
286
284
282
280
276
270
268
264
262
258
256
254
250
250
250
252
254
258
264
268
274
280
288
294
308
316
324
330
338
352
358
364
368
372
376
376
376
374
372
368
364
352
344
336
326
318
294
286
278
270
264
258
250
250
248
250
250
256
264
270
280
288
308
322
336
350
364
380
396
428
444
460
476
492
522
536
550
562
576
586
598
616
622
630
634
640
648
648
650
650
650
648
648
642
636
632
626
622
610
602
596
588
580
564
556
548
540
532
522
514
496
486
478
468
460
444
436
428
420
412
404
398
386
380
376
372
368
364
362
362
362
364
368
372
376
380
386
392
398
412
420
428
436
444
460
468
476
482
490
496
502
512
514
518
520
524
526
526
526
526
526
524
524
524
524
526
526
526
534
538
542
554
566
544
566
590
572
556
600
646
638
726
816
922
1028
1254
1360
1466
1546
1626
2002
2018
2036
1948
1860
1764
1668
988
624
260
-87
-435
-711
-759
-809
-571
-335
-395
-457
-209
-135
-63
10
84
116
116
116
140
164
156
146
166
170
174
176
176
176
174
172
168
164
152
144
136
128
118
108
98
76
64
52
42
30
8
-1
-13
-21
-31
-39
-47
-59
-63
-67
-69
-71
-71
-69
-67
-63
-59
-47
-39
-33
-23
-15
-5
2
24
34
44
56
66
88
98
108
118
128
138
146
164
172
178
186
194
206
214
220
226
232
244
252
258
266
272
280
288
310
320
328
336
352
360
368
374
382
386
392
400
402
404
404
406
402
398
396
390
384
370
360
352
340
330
316
304
280
266
250
236
220
188
172
154
138
122
106
90
58
44
28
14
0
-23
-35
-47
-57
-67
-75
-83
-97
-103
-109
-113
-119
-129
-131
-135
-139
-143
-151
-153
-157
-161
-165
-169
-173
-183
-187
-191
-193
-197
-201
-203
-205
-203
-203
-201
-199
-191
-183
-177
-169
-161
-141
-129
-119
-107
-95
-71
-59
-49
-39
-29
-19
-11
2
6
10
12
14
12
8
4
-1
-7
-15
-23
-41
-51
-61
-71
-83
-105
-115
-125
-135
-145
-161
-169
-177
-181
-187
-191
-197
-201
-201
-203
-203
-203
-197
-193
-191
-185
-179
-171
-165
-147
-135
-125
-113
-101
-75
-59
-45
-29
-13
18
34
48
64
78
92
104
128
136
144
150
156
160
160
158
154
150
144
138
118
108
96
82
68
40
26
10
-5
-21
-37
-53
-83
-99
-115
-129
-145
-177
-191
-207
-221
-235
-263
-275
-289
-301
-313
-323
-335
-353
-359
-367
-371
-377
-381
-381
-383
-381
-379
-375
-373
-363
-357
-351
-343
-337
-325
-319
-313
-307
-301
-293
-289
-287
-285
-283
-281
-281
-283
-283
-285
-285
-287
-289
-289
-291
-291
-293
-291
-291
-291
-289
-287
-285
-283
-279
-275
-273
-269
-267
-263
-261
-259
-257
-255
-253
-253
-251
-249
-249
-247
-245
-243
-241
-239
-237
-235
-231
-229
-223
-219
-217
-213
-211
-203
-199
-197
-195
-193
-191
-189
-189
-189
-191
-193
-195
-201
-205
-211
-215
-221
-231
-235
-239
-243
-249
-251
-253
-261
-261
-261
-255
-251
-239
-251
-265
-247
-231
-257
-285
-203
-145
-89
-89
-89
114
242
370
504
640
940
1148
1358
1452
1548
1724
1900
1554
1506
1460
1164
868
184
-159
-503
-657
-811
-871
-933
-827
-685
-543
-523
-505
-427
-377
-329
-283
-239
-169
-171
-175
-153
-131
-129
-127
-109
-103
-99
-99
-99
-99
-103
-107
-111
-117
-123
-131
-147
-155
-165
-173
-181
-197
-203
-211
-215
-221
-229
-231
-233
-233
-233
-231
-229
-221
-215
-209
-199
-191
-171
-159
-147
-133
-119
-103
-87
-55
-49
-43
-23
-3
36
56
76
96
114
150
170
188
204
220
236
252
282
298
312
326
342
374
390
406
422
438
442
448
484
502
520
540
560
598
620
644
660
676
690
704
732
742
754
764
774
788
794
800
802
806
806
804
804
800
796
790
786
770
760
752
740
728
702
688
674
658
642
640
638
602
580
560
538
518
474
450
428
404
380
334
310
288
264
240
218
194
148
126
104
84
62
22
6
-11
-25
-41
-53
-67
-89
-97
-107
-113
-119
-127
-127
-129
-127
-125
-119
-111
-105
-97
-89
-79
-71
-49
-39
-29
-17
-7
12
20
28
36
42
46
50
52
52
50
46
42
30
20
10
0
-11
-37
-51
-67
-81
-97
-113
-129
-159
-173
-189
-203
-217
-243
-253
-265
-273
-283
-291
-299
-311
-315
-319
-321
-323
-323
-321
-321
-317
-315
-309
-305
-293
-285
-279
-271
-263
-247
-239
-231
-221
-213
-197
-189
-183
-175
-169
-163
-159
-149
-145
-141
-139
-137
-133
-131
-131
-131
-131
-131
-133
-137
-139
-141
-145
-149
-157
-161
-167
-173
-179
-191
-199
-207
-215
-225
-233
-243
-263
-273
-283
-293
-303
-323
-331
-341
-349
-357
-363
-371
-379
-381
-385
-385
-385
-379
-373
-369
-361
-353
-333
-321
-309
-295
-281
-265
-251
-221
-205
-189
-173
-159
-131
-117
-105
-93
-83
-73
-63
-49
-43
-39
-35
-33
-29
-29
-29
-29
-31
-33
-35
-37
-39
-41
-43
-45
-45
-45
-47
-45
-45
-41
-37
-35
-31
-29
-25
-21
-13
-9
-7
-3
0
4
6
6
8
8
8
6
2
0
-3
-7
-11
-19
-23
-29
-35
-41
-51
-57
-63
-69
-75
-81
-87
-99
-105
-113
-119
-125
-135
-139
-143
-147
-151
-151
-153
-157
-155
-153
-145
-139
-121
-135
-149
-127
-107
-153
-107
-61
2
66
62
58
292
426
560
716
874
1134
1230
1326
1636
1946
1832
1718
1482
1356
1230
876
522
-291
-615
-941
-1165
-1389
-1537
-1479
-1423
-1289
-1157
-1015
-875
-729
-643
-559
-485
-413
-273
-239
-207
-255
-303
-313
-323
-311
-313
-315
-321
-329
-351
-357
-363
-369
-377
-387
-391
-395
-395
-397
-395
-393
-383
-375
-369
-359
-349
-325
-311
-297
-283
-269
-253
-239
-207
-191
-177
-161
-145
-113
-97
-81
-77
-75
-59
-45
-9
10
28
50
70
118
144
168
186
204
272
304
338
372
406
438
472
534
564
594
612
630
680
702
726
748
770
788
808
842
856
872
886
902
930
942
956
966
978
1000
1008
1018
1026
1036
1044
1052
1064
1070
1076
1080
1084
1090
1092
1094
1094
1094
1092
1092
1086
1080
1076
1070
1064
1046
1036
1026
1012
1000
972
956
940
942
944
922
902
856
830
806
780
756
708
690
674
658
644
632
620
600
594
588
584
580
576
576
578
580
582
588
590
594
596
598
598
600
600
598
598
594
590
582
576
572
566
560
554
550
540
536
532
530
530
530
530
532
534
538
542
546
554
558
564
566
570
572
572
572
568
566
554
546
538
528
518
506
494
466
452
438
424
410
382
368
356
344
334
324
314
296
290
286
282
278
278
278
280
280
286
290
294
300
304
310
318
334
344
354
364
376
400
414
428
442
458
472
488
522
538
556
572
588
622
636
652
666
682
706
716
728
736
746
752
758
766
766
768
768
768
764
760
756
750
746
740
734
722
714
708
702
696
686
680
676
672
670
664
662
662
662
662
664
666
670
674
680
684
690
704
712
722
732
742
752
762
786
798
810
822
834
858
868
880
890
902
910
920
936
942
948
952
958
964
964
966
966
966
964
960
958
954
952
948
944
934
928
924
918
912
900
892
886
880
874
868
862
848
842
836
828
822
810
804
798
792
786
774
768
764
758
754
748
744
736
732
728
724
722
718
716
716
714
714
714
714
716
718
720
722
724
728
730
734
736
740
746
750
754
758
762
766
772
780
786
794
796
800
820
816
812
832
854
840
826
914
872
832
912
994
1240
1400
1562
1744
1928
2284
2422
2562
2902
3242
3280
3318
3024
2746
2468
2006
1546
606
-3
-189
-377
-407
-437
-277
-147
-19
104
226
368
444
522
544
566
558
552
596
580
564
572
582
590
590
592
594
596
598
598
600
602
604
604
606
610
612
614
616
620
626
628
632
636
640
644
648
656
658
662
666
670
678
682
688
692
698
708
714
720
726
732
740
748
764
772
780
788
798
816
824
834
842
850
858
866
880
886
894
898
904
914
918
922
924
928
934
936
940
942
944
946
948
954
956
958
958
960
962
962
964
962
962
958
956
948
940
934
924
916
892
876
862
870
880
840
816
792
766
740
718
698
622
584
548
534
522
476
456
436
418
402
390
378
350
334
320
306
292
264
268
270
254
238
220
202
156
130
104
92
78
-3
-43
-85
-127
-169
-249
-285
-321
-353
-385
-387
-389
-431
-437
-443
-453
-465
-479
-483
-487
-491
-495
-495
-497
-497
-495
-493
-489
-487
-479
-475
-471
-467
-463
-453
-447
-443
-437
-433
-427
-423
-413
-407
-401
-395
-389
-377
-371
-365
-359
-353
-347
-343
-333
-327
-323
-319
-317
-311
-309
-307
-305
-305
-303
-303
-303
-303
-303
-303
-305
-305
-303
-303
-303
-303
-299
-297
-295
-291
-289
-285
-283
-275
-269
-265
-259
-255
-243
-237
-231
-225
-219
-207
-199
-193
-187
-181
-173
-167
-155
-149
-143
-137
-131
-121
-115
-111
-107
-105
-101
-99
-97
-97
-97
-99
-101
-107
-111
-115
-121
-127
-133
-139
-153
-161
-169
-175
-183
-197
-203
-211
-215
-221
-229
-231
-235
-235
-237
-237
-237
-231
-227
-223
-217
-211
-197
-189
-181
-171
-161
-151
-141
-117
-105
-93
-79
-67
-41
-27
-13
0
14
42
56
70
84
98
112
126
152
164
174
184
194
212
220
226
232
236
240
244
248
248
248
248
246
244
242
240
238
234
230
228
224
222
218
216
212
206
204
200
196
192
182
176
170
164
158
152
144
130
122
114
108
100
86
80
74
70
64
56
54
52
52
50
52
52
54
58
60
64
68
74
78
82
86
88
92
94
98
100
100
102
102
104
104
104
106
108
110
112
114
120
126
128
130
152
144
136
162
186
144
194
242
204
166
276
384
654
818
984
1122
1260
1714
1940
2168
2042
1916
1794
1672
1384
1008
632
272
-89
-617
-733
-851
-829
-809
-419
-417
-415
-381
-349
-301
-255
-165
-131
-97
-105
-115
-71
-51
-33
-23
-13
-3
6
20
28
36
42
48
56
60
62
64
66
66
66
66
66
64
64
62
60
58
56
54
52
52
52
50
52
52
54
56
64
70
74
80
86
104
114
122
134
146
170
184
196
210
224
240
254
284
298
312
326
342
372
386
402
416
430
442
456
484
496
508
520
534
556
568
580
590
602
614
626
648
658
670
680
692
714
726
738
748
760
782
792
802
812
822
830
840
854
858
864
868
872
874
872
870
864
860
852
846
824
808
794
804
814
770
744
718
704
692
618
578
540
500
460
420
380
264
226
188
150
80
46
12
6
0
-19
-41
-47
-57
-69
-75
-83
-91
-93
-95
-95
-97
-95
-93
-93
-89
-87
-85
-83
-81
-79
-79
-79
-79
-81
-81
-83
-85
-89
-91
-93
-99
-101
-105
-107
-109
-111
-111
-113
-113
-113
-111
-109
-107
-105
-103
-101
-99
-97
-95
-95
-95
-95
-99
-101
-105
-109
-113
-119
-125
-141
-149
-159
-167
-177
-197
-207
-219
-227
-237
-245
-255
-271
-277
-283
-287
-293
-297
-297
-297
-293
-291
-281
-273
-267
-257
-247
-235
-225
-199
-185
-171
-155
-141
-111
-97
-83
-69
-57
-45
-33
-13
-5
0
6
10
16
16
16
14
12
4
-1
-7
-13
-19
-25
-33
-47
-53
-59
-65
-71
-81
-85
-91
-93
-97
-99
-103
-109
-111
-113
-115
-117
-121
-121
-123
-125
-127
-129
-129
-131
-129
-129
-127
-127
-121
-115
-111
-103
-97
-79
-69
-59
-47
-37
-25
-13
10
22
34
46
56
76
84
92
98
104
112
114
116
116
116
114
112
106
104
100
98
94
88
86
84
82
80
80
80
80
82
84
88
90
96
100
104
108
110
114
116
122
124
126
128
128
128
128
128
128
126
124
122
120
120
118
118
116
116
118
118
120
122
128
132
134
140
144
148
152
162
168
172
178
182
190
194
198
202
206
212
216
220
224
228
230
232
240
250
258
264
270
298
292
268
244
280
316
428
402
378
492
608
876
1036
1196
1348
1500
1908
2102
2296
2296
2296
2062
1830
1568
1256
946
588
232
-363
-549
-737
-783
-831
-755
-681
-393
-247
-101
-61
-23
78
92
104
124
144
188
192
196
212
226
238
248
268
278
286
294
300
310
316
322
326
330
334
338
346
348
352
356
360
368
372
378
384
390
396
404
418
426
436
444
454
472
482
492
500
510
528
536
546
554
562
568
576
590
596
604
610
618
632
638
646
654
662
670
680
700
710
722
734
746
770
784
798
810
824
854
868
882
896
912
926
942
972
986
1002
1016
1030
1058
1070
1084
1096
1108
1118
1128
1146
1152
1160
1164
1168
1172
1172
1172
1168
1166
1154
1146
1138
1128
1120
1108
1096
1068
1052
1038
1020
1004
996
978
960
940
922
900
880
838
816
794
772
750
704
680
658
636
614
572
550
530
512
494
476
458
426
406
386
370
354
322
306
292
278
264
250
234
208
196
184
174
164
150
146
140
138
136
138
140
150
160
168
180
190
218
234
250
268
284
316
332
350
364
380
392
406
426
434
442
446
450
452
450
450
446
442
436
430
414
404
394
384
374
352
340
330
320
310
290
282
272
264
254
248
240
226
222
216
212
208
202
200
198
198
196
196
196
198
200
200
202
204
210
214
216
220
222
230
234
238
244
248
254
258
270
276
282
290
296
306
312
320
326
332
338
346
358
364
370
376
382
392
396
400
404
408
414
416
420
420
422
422
422
422
420
418
416
414
408
404
400
396
394
390
386
380
378
376
374
372
372
374
376
378
380
384
388
398
402
408
414
420
430
434
440
444
448
454
456
458
458
458
456
456
450
446
442
436
432
420
414
408
402
396
390
384
372
366
362
358
354
346
342
340
336
334
328
324
322
318
316
312
308
298
292
286
278
270
250
240
228
216
204
192
178
150
136
122
108
94
66
54
42
32
20
0
-7
-15
-21
-27
-31
-37
-43
-45
-47
-47
-49
-47
-45
-43
-39
-37
-31
-25
-13
-3
4
14
22
48
66
82
78
74
106
132
156
162
168
210
252
362
334
308
400
492
750
906
1064
1204
1344
1460
1578
2254
2174
2094
2008
1922
1736
1384
1034
622
212
-117
-449
-909
-993
-1077
-1039
-1001
-691
-685
-681
-647
-615
-525
-483
-441
-409
-377
-381
-385
-343
-323
-303
-289
-277
-253
-243
-235
-225
-217
-211
-205
-195
-193
-191
-191
-191
-195
-199
-203
-207
-213
-225
-231
-239
-245
-253
-259
-265
-275
-277
-281
-281
-283
-279
-273
-269
-261
-253
-241
-231
-205
-189
-175
-159
-143
-109
-91
-75
-59
-43
-11
4
20
34
48
64
78
106
122
136
152
166
196
214
230
230
230
250
270
312
334
356
378
402
446
466
488
508
528
562
576
592
606
622
636
650
674
686
698
708
718
736
742
750
756
762
764
768
770
768
768
764
760
746
736
726
712
700
684
668
676
654
632
608
584
534
510
486
460
436
388
364
340
316
294
272
248
202
180
156
134
112
68
48
26
10
-7
-21
-37
-63
-73
-85
-93
-103
-115
-117
-121
-121
-123
-121
-117
-113
-107
-101
-93
-85
-65
-55
-45
-33
-23
0
12
24
36
46
58
68
88
98
106
116
124
138
144
150
154
158
166
168
170
172
172
172
172
168
166
162
158
154
142
134
126
118
110
100
90
70
60
48
36
24
2
-7
-17
-27
-39
-57
-65
-73
-79
-85
-91
-97
-103
-105
-109
-109
-111
-109
-107
-105
-101
-97
-93
-89
-77
-69
-61
-53
-45
-27
-17
-7
4
14
26
36
56
68
78
88
96
114
122
130
136
142
150
152
154
156
156
154
152
146
142
138
132
126
112
104
96
88
80
72
64
48
42
34
28
20
10
6
0
-3
-7
-13
-13
-15
-15
-17
-17
-17
-15
-13
-11
-7
-3
4
10
14
20
26
32
38
52
60
66
74
80
94
100
106
112
116
124
126
128
130
130
130
130
126
124
122
118
114
106
102
98
94
90
88
84
78
78
76
74
72
72
72
72
74
74
76
78
80
82
82
82
82
84
84
84
84
82
80
78
76
74
72
70
68
62
60
56
54
50
46
44
40
38
36
34
32
30
30
28
28
28
30
32
34
38
40
48
54
58
66
72
78
84
104
112
118
132
144
142
166
188
186
182
224
264
186
264
342
456
572
842
1000
1158
1286
1414
1834
2030
2228
2102
1978
1856
1736
1452
1110
768
400
34
-343
-421
-501
-437
-375
-213
-53
-35
-3
26
66
106
174
152
130
126
122
132
134
136
134
132
126
120
110
106
100
94
86
74
68
62
56
50
46
40
34
32
28
28
26
24
26
26
28
30
34
38
42
48
52
60
66
80
90
98
108
118
140
152
164
178
190
204
218
246
260
274
288
326
340
354
366
378
388
400
422
430
440
448
458
474
480
488
494
502
514
520
526
530
536
542
548
562
568
576
584
592
612
622
632
644
656
668
680
706
718
732
744
758
782
792
802
810
818
828
830
832
830
828
822
816
794
812
830
810
790
740
724
708
670
632
592
554
476
436
398
360
324
256
224
190
160
130
116
96
74
64
52
40
26
4
-3
-13
-21
-29
-43
-49
-55
-59
-65
-69
-73
-79
-81
-85
-87
-89
-93
-93
-95
-95
-95
-91
-89
-87
-83
-81
-77
-73
-63
-57
-53
-47
-43
-35
-31
-29
-27
-25
-25
-27
-31
-35
-39
-45
-53
-69
-79
-91
-101
-113
-125
-139
-167
-179
-193
-207
-221
-245
-257
-269
-279
-289
-307
-313
-319
-323
-329
-331
-335
-337
-335
-335
-333
-331
-323
-317
-313
-307
-303
-295
-289
-277
-271
-267
-261
-257
-251
-249
-247
-247
-247
-251
-255
-259
-265
-271
-277
-285
-301
-309
-319
-327
-337
-355
-363
-373
-381
-389
-395
-403
-415
-421
-427
-431
-435
-443
-445
-449
-451
-455
-459
-461
-463
-463
-465
-465
-467
-467
-467
-467
-465
-463
-457
-453
-449
-443
-437
-429
-421
-403
-391
-381
-369
-359
-333
-319
-307
-293
-279
-251
-237
-225
-213
-201
-189
-177
-157
-149
-141
-133
-127
-119
-115
-113
-111
-111
-111
-113
-117
-119
-123
-127
-131
-141
-145
-149
-153
-157
-159
-163
-169
-169
-171
-171
-171
-167
-163
-161
-157
-155
-145
-139
-135
-129
-123
-117
-113
-101
-95
-91
-85
-81
-73
-69
-65
-61
-57
-53
-51
-47
-43
-41
-39
-37
-33
-31
-31
-29
-29
-27
-27
-27
-27
-27
-27
-29
-31
-31
-33
-33
-35
-37
-37
-39
-39
-39
-37
-35
-29
-27
-25
-19
-13
6
18
30
22
14
60
40
18
60
102
164
224
224
338
452
580
710
1006
1120
1236
1418
1600
1790
1982
1738
1616
1494
1350
1208
482
138
-205
-445
-685
-871
-835
-801
-633
-467
-463
-461
-397
-353
-309
-267
-227
-169
-187
-207
-193
-179
-167
-157
-143
-139
-137
-135
-135
-133
-133
-135
-137
-139
-141
-143
-147
-149
-151
-151
-153
-155
-155
-155
-155
-155
-151
-147
-145
-141
-139
-135
-131
-121
-115
-111
-105
-99
-85
-77
-71
-63
-55
-45
-37
-17
-7
2
12
22
44
56
66
78
90
112
124
134
146
156
166
176
196
206
214
224
234
250
258
266
274
282
290
296
308
314
320
326
332
342
346
352
354
358
366
368
372
374
376
378
380
382
382
384
384
384
380
378
376
370
366
358
352
334
322
312
300
286
254
260
264
242
218
168
142
114
88
60
34
8
-39
-61
-85
-105
-125
-147
-161
-177
-189
-203
-213
-225
-247
-255
-265
-273
-281
-295
-301
-307
-313
-319
-325
-331
-339
-341
-345
-345
-347
-347
-343
-341
-335
-331
-317
-307
-297
-283
-271
-257
-243
-211
-193
-177
-167
-159
-109
-93
-77
-63
-49
-37
-27
-9
-3
2
6
10
10
8
6
2
-1
-11
-17
-25
-31
-39
-45
-53
-67
-73
-79
-83
-89
-97
-99
-103
-103
-105
-105
-105
-103
-101
-99
-95
-93
-87
-81
-77
-73
-69
-59
-53
-47
-41
-37
-31
-25
-15
-9
-3
2
8
18
24
30
36
42
48
54
66
72
76
82
88
98
102
106
110
112
118
120
120
122
122
122
120
116
114
110
108
104
94
90
84
78
72
68
62
50
44
38
34
28
20
16
12
10
8
6
4
4
6
8
12
14
24
32
38
46
54
74
86
96
108
120
132
144
168
180
192
202
212
228
236
242
246
250
252
254
254
252
250
246
242
234
228
222
218
212
202
198
192
188
184
182
180
176
176
176
176
176
176
178
178
180
180
180
178
178
176
174
172
168
162
160
156
152
148
142
140
136
136
134
134
132
134
136
138
142
144
152
158
162
166
170
176
180
188
192
196
198
200
206
208
210
212
214
220
222
222
226
230
240
250
268
258
246
266
286
238
282
324
386
450
450
452
656
786
918
1070
1222
1492
1738
1984
2168
2354
2290
2226
2078
1998
1918
1580
1242
464
120
-225
-381
-539
-655
-583
-511
-365
-219
-53
110
286
366
446
428
410
386
376
366
366
368
368
368
356
348
342
336
332
320
312
306
300
292
276
268
260
254
246
240
232
220
216
210
208
204
198
198
198
200
200
204
206
214
222
228
236
244
266
278
288
300
312
340
354
370
384
400
416
432
464
480
496
512
528
558
572
588
602
618
630
644
670
680
692
702
712
730
738
746
752
760
772
776
782
784
788
790
794
800
802
804
804
806
810
810
810
810
812
812
812
814
812
812
812
812
810
808
808
806
804
802
802
796
792
790
786
782
774
768
762
754
748
730
718
708
696
684
668
652
668
648
630
606
584
534
506
480
446
414
376
340
316
292
268
246
224
186
174
160
148
134
108
98
86
78
68
60
52
40
36
32
30
26
26
28
30
34
38
44
50
68
78
88
100
110
136
150
162
176
188
214
226
238
250
260
270
280
294
300
304
308
312
318
318
318
318
318
316
314
306
300
296
290
278
272
266
260
252
240
234
226
220
212
206
198
186
180
172
168
162
150
146
142
138
132
130
126
120
118
116
116
114
112
112
112
114
114
116
118
120
122
124
126
128
130
130
130
130
128
124
122
118
112
106
100
92
74
66
56
44
32
8
-3
-15
-27
-39
-51
-63
-87
-97
-107
-117
-127
-143
-149
-157
-161
-167
-175
-177
-181
-183
-185
-185
-187
-185
-183
-183
-179
-177
-169
-163
-159
-153
-147
-139
-133
-115
-105
-95
-85
-75
-53
-41
-29
-17
-7
16
26
36
46
56
64
70
84
88
92
96
98
98
98
96
94
90
86
80
68
62
54
48
40
24
16
8
0
-7
-21
-27
-35
-41
-47
-53
-59
-69
-73
-77
-81
-85
-91
-93
-95
-97
-99
-99
-99
-99
-97
-95
-91
-89
-81
-75
-71
-65
-59
-51
-45
-29
-21
-13
-5
2
18
26
32
38
44
52
56
60
62
64
66
68
70
72
74
74
72
76
82
88
94
98
110
120
106
84
60
96
130
238
210
180
274
368
636
804
972
1156
1342
1516
1690
2282
2440
2600
2616
2634
2320
2038
1758
1324
892
552
212
-235
-295
-357
-283
-209
92
102
112
148
184
272
306
340
262
268
274
280
278
276
270
264
240
230
220
208
194
182
168
140
128
114
104
92
72
64
56
52
46
42
42
42
44
46
52
56
66
74
80
88
96
112
120
128
136
144
152
158
170
176
182
188
194
204
210
214
220
224
230
234
244
250
256
262
268
280
288
294
300
306
318
324
332
338
346
352
360
372
378
386
392
398
410
414
420
426
432
438
444
456
460
466
472
478
488
492
496
498
502
506
506
506
504
502
496
492
480
470
462
450
440
414
400
386
370
354
338
322
284
266
248
230
196
180
164
150
134
102
86
70
54
36
18
0
-39
-59
-79
-101
-123
-169
-191
-215
-237
-259
-281
-303
-343
-357
-371
-385
-401
-425
-435
-445
-453
-461
-473
-477
-481
-481
-483
-481
-481
-475
-469
-463
-455
-449
-429
-419
-409
-397
-385
-371
-359
-333
-319
-307
-293
-281
-257
-245
-233
-223
-213
-205
-197
-183
-177
-173
-169
-165
-161
-159
-159
-159
-161
-163
-165
-169
-171
-175
-179
-183
-193
-197
-203
-207
-211
-221
-225
-231
-235
-241
-245
-249
-257
-259
-263
-265
-269
-275
-277
-279
-279
-281
-285
-285
-285
-285
-285
-283
-283
-279
-275
-273
-269
-267
-259
-253
-249
-243
-239
-233
-227
-217
-211
-207
-203
-199
-191
-189
-187
-185
-183
-179
-179
-179
-177
-177
-177
-177
-177
-177
-177
-175
-175
-173
-171
-169
-165
-163
-159
-157
-149
-145
-141
-135
-131
-121
-115
-111
-105
-101
-91
-87
-83
-79
-75
-71
-69
-65
-61
-59
-57
-55
-53
-51
-49
-47
-47
-45
-43
-39
-37
-35
-33
-31
-27
-23
-21
-19
-19
-17
-15
-15
-15
-15
-15
-17
-21
-23
-27
-31
-35
-43
-47
-51
-55
-59
-63
-67
-73
-75
-77
-77
-77
-77
-75
-73
-69
-67
-63
-59
-47
-41
-35
-27
-19
-5
2
10
20
28
44
52
60
68
74
82
88
102
108
112
118
122
132
136
140
144
148
152
154
158
162
164
166
168
172
174
176
178
180
186
188
190
194
198
204
208
212
218
222
232
240
270
266
260
278
296
264
230
356
410
484
558
606
724
842
984
1126
1442
1584
1726
1926
2126
2336
2548
2532
2488
2444
2418
2392
1680
1244
810
358
-91
-305
-521
-695
-621
-549
-381
-213
142
78
12
64
114
156
198
244
216
188
188
186
202
206
208
208
208
202
202
202
202
200
200
198
194
192
190
188
186
184
184
182
182
182
182
182
186
190
194
198
202
216
224
232
242
252
274
286
298
310
322
334
348
376
388
400
412
424
446
456
466
474
482
488
496
506
510
516
520
524
530
534
538
540
544
550
554
558
562
566
570
576
586
592
598
604
610
624
632
640
648
656
664
672
692
700
710
720
732
752
762
772
780
790
808
814
820
824
828
828
830
828
822
816
806
796
768
782
796
772
748
738
730
650
608
568
526
486
408
370
334
300
266
234
202
142
114
84
58
30
-7
-31
-57
-79
-101
-141
-153
-167
-181
-195
-205
-217
-235
-241
-247
-249
-251
-251
-247
-243
-235
-227
-217
-207
-179
-163
-147
-151
-157
-109
-83
-59
-31
-5
48
74
100
124
146
154
162
188
198
208
216
222
230
232
232
230
228
226
222
212
206
198
192
184
168
162
154
146
138
124
118
112
106
100
96
92
84
82
80
80
80
82
84
86
90
94
100
104
118
126
134
142
150
170
180
188
198
206
222
230
238
246
254
260
266
278
284
288
294
298
304
308
314
318
322
326
330
338
342
348
352
356
364
368
372
376
380
384
388
396
398
402
404
408
416
420
424
428
432
442
448
454
460
468
474
482
500
508
518
526
536
556
566
576
584
594
604
614
632
640
648
654
662
676
682
688
692
696
704
706
708
708
708
708
708
702
698
694
688
684
668
660
652
640
630
618
608
586
574
562
550
538
516
504
494
484
476
458
450
444
438
432
426
422
414
412
410
408
406
406
406
406
406
408
408
410
414
416
420
422
424
430
432
434
436
438
440
440
440
440
440
438
438
434
430
428
424
422
414
410
408
404
402
400
400
398
398
400
402
406
414
422
430
436
444
456
468
460
482
504
506
508
586
572
558
616
676
850
966
1082
1214
1346
1496
1648
1936
2112
2288
2472
2658
2724
2500
2276
2166
2058
1742
1426
748
476
206
44
-117
-203
-163
-125
-39
46
46
38
30
40
50
64
78
98
100
102
104
106
112
112
112
112
112
112
110
108
108
106
106
104
104
106
106
110
112
120
126
130
136
142
152
160
180
192
202
214
226
254
270
284
298
312
326
342
372
386
402
416
432
458
470
484
496
508
530
540
550
560
570
578
588
606
614
624
634
644
664
676
688
700
714
728
742
774
770
768
786
806
852
876
902
928
956
976
998
1072
1110
1148
1166
1184
1234
1240
1246
1260
1274
1292
1296
1302
1304
1306
1304
1304
1294
1286
1278
1266
1256
1230
1214
1198
1198
1198
1180
1162
1122
1100
1078
1056
1034
984
958
932
904
878
830
796
764
730
696
664
634
602
576
552
530
508
466
446
428
410
392
376
360
332
320
308
300
290
272
268
262
260
256
258
260
262
270
276
288
298
326
316
306
330
354
364
406
448
492
538
558
580
594
606
620
630
642
654
654
656
654
652
642
634
626
616
608
598
588
566
556
546
536
528
512
506
500
494
490
486
482
476
472
470
468
468
466
464
464
464
464
464
464
466
468
470
472
476
484
488
494
500
506
520
528
536
544
552
558
566
582
588
594
600
606
614
616
620
620
622
620
620
616
612
610
604
598
586
578
570
560
552
532
522
512
500
490
478
466
444
432
420
408
398
378
368
358
350
342
336
330
320
316
314
314
314
318
322
326
330
336
352
360
368
376
386
394
402
418
426
434
438
444
452
454
456
454
454
452
450
440
434
428
420
412
396
386
376
366
358
338
328
318
310
294
286
270
264
256
252
246
236
232
228
226
222
220
216
214
212
210
210
208
206
206
206
204
202
202
200
196
194
190
188
184
176
174
170
166
162
154
152
148
146
142
142
140
140
142
144
148
150
162
170
176
186
194
206
216
242
258
274
274
274
308
326
346
366
386
432
458
484
508
532
542
554
616
654
694
742
792
792
868
944
1040
1136
1246
1356
1578
1632
1686
1912
2140
2206
2148
2092
2032
1972
1236
1034
832
552
272
52
-167
-413
-433
-453
-263
-73
-81
-77
-75
-65
-55
-53
-51
-17
-17
-17
-17
-19
-23
-25
-29
-35
-43
-61
-69
-79
-89
-99
-109
-119
-137
-145
-153
-159
-167
-179
-181
-185
-187
-191
-191
-191
-187
-183
-181
-175
-171
-157
-147
-139
-129
-119
-107
-95
-71
-57
-45
-31
-19
8
22
34
48
60
86
98
110
122
132
142
152
172
182
192
202
212
230
242
252
264
274
286
298
322
336
350
366
382
382
400
418
438
460
502
524
548
572
598
622
648
698
722
746
770
794
838
846
856
868
880
888
898
910
910
912
910
908
898
888
878
866
854
822
826
832
810
788
762
738
684
660
636
604
574
512
480
450
428
406
380
354
306
286
264
244
224
208
196
182
172
162
146
140
134
130
126
124
120
116
116
114
112
110
108
106
102
100
96
92
86
76
70
62
56
48
30
22
12
4
-5
-13
-23
-41
-49
-57
-65
-73
-87
-93
-99
-103
-109
-117
-121
-125
-127
-131
-133
-135
-139
-139
-141
-141
-143
-145
-145
-147
-149
-151
-151
-153
-159
-161
-163
-165
-169
-177
-181
-185
-189
-195
-205
-209
-215
-219
-225
-229
-235
-245
-249
-253
-255
-259
-263
-263
-263
-263
-263
-261
-259
-253
-247
-243
-237
-233
-221
-215
-209
-201
-195
-179
-171
-165
-157
-149
-141
-135
-119
-111
-105
-97
-89
-75
-67
-59
-51
-45
-37
-29
-17
-9
-3
2
6
16
20
24
26
28
30
30
28
28
26
24
20
10
6
2
-3
-9
-19
-23
-29
-33
-39
-43
-49
-55
-57
-61
-63
-65
-69
-69
-69
-69
-71
-71
-71
-71
-71
-71
-71
-71
-71
-71
-73
-73
-75
-77
-79
-81
-83
-85
-87
-89
-93
-95
-97
-99
-101
-105
-105
-107
-107
-107
-107
-107
-103
-101
-99
-97
-95
-87
-83
-79
-75
-71
-63
-57
-53
-49
-45
-41
-37
-31
-27
-25
-21
-19
-15
-13
-13
-11
-9
-7
-7
-7
-7
-7
-7
-9
-11
-11
-13
-15
-17
-21
-23
-27
-29
-33
-35
-37
-41
-41
-41
-39
-39
-39
-33
-29
-19
-9
0
10
-11
10
30
18
4
92
152
210
206
202
390
518
646
782
920
1058
1196
1388
1654
1922
1980
2040
1916
1840
1764
1428
1094
744
394
-175
-349
-523
-587
-653
-617
-493
-369
-367
-367
-373
-379
-359
-343
-327
-313
-299
-293
-291
-289
-287
-285
-285
-285
-287
-289
-291
-293
-297
-303
-305
-309
-311
-315
-319
-321
-323
-323
-325
-327
-329
-331
-331
-331
-331
-333
-335
-335
-335
-335
-335
-335
-333
-333
-331
-331
-327
-325
-319
-313
-309
-303
-297
-283
-273
-265
-255
-247
-235
-225
-203
-191
-179
-167
-157
-133
-123
-113
-103
-93
-77
-69
-63
-57
-51
-45
-41
-33
-31
-29
-25
-23
-21
-19
-19
-17
-15
-13
-13
-11
-9
-7
-5
-3
2
6
8
14
18
32
40
46
56
64
76
86
