10246
10237
10230
10234
10255
10287
10314
10321
10306
10282
10259
10237
10212
10187
10173
10176
10197
10224
10248
10265
10275
10274
10265
10256
10260
10278
10292
10286
10259
10232
10231
10257
10289
10299
10279
10245
10217
10206
10211
10230
10260
10289
10302
10290
10264
10246
10246
10253
10251
10240
10241
10272
10322
10353
10339
10287
10231
10202
10205
10217
10222
10219
10221
10234
10256
10277
10289
10292
10286
10274
10258
10242
10230
10225
10233
10259
10295
10322
10317
10277
10223
10190
10201
10245
10291
10316
10321
10317
10311
10301
10287
10276
10276
10284
10290
10287
10288
10305
10335
10354
10345
10316
10299
10317
10358
10386
10375
10335
10295
10276
10275
10273
10266
10261
10269
10284
10291
10283
10269
10266
10277
10288
10282
10257
10227
10214
10226
10249
10266
10266
10255
10245
10243
10245
10239
10227
10219
10228
10251
10270
10265
10243
10230
10250
10294
10325
10309
10249
10188
10168
10197
10249
10291
10317
10348
10405
10492
10594
10694
10791
10888
10987
11079
11157
11217
11252
11246
11183
11057
10887
10702
10526
10367
10226
10108
10027
9991
9994
10018
10050
10090
10141
10196
10237
10250
10239
10226
10228
10244
10255
10249
10234
10231
10256
10297
10330
10333
10307
10272
10247
10238
10242
10253
10271
10293
10312
10316
10301
10277
10258
10255
10265
10280
10289
10291
10288
10285
10284
10289
10303
10321
10335
10332
10312
10287
10273
10282
10306
10330
10341
10339
10332
10327
10322
10316
10314
10328
10360
10403
10435
10437
10406
10361
10326
10319
10338
10366
10386
10389
10380
10371
10371
10380
10390
10396
10398
10402
10409
10419
10425
10427
10433
10451
10484
10515
10523
10500
10458
10427
10433
10477
10539
10587
10602
10589
10565
10549
10552
10568
10589
10605
10614
10617
10619
10620
10617
10611
10605
10606
10619
10640
10660
10669
10665
10653
10637
10619
10598
10577
10565
10563
10566
10561
10544
10522
10507
10504
10504
10492
10463
10426
10397
10383
10386
10396
10405
10410
10404
10386
10361
10339
10328
10329
10333
10328
10311
10287
10263
10247
10242
10247
10260
10275
10288
10294
10294
10295
10297
10303
10313
10325
10336
10337
10318
10281
10242
10223
10235
10267
10295
10305
10297
10285
10279
10283
10291
10301
10306
10304
10288
10264
10246
10250
10279
10321
10352
10359
10342
10313
10285
10266
10259
10265
10277
10285
10282
10273
10268
10281
10307
10333
10345
10338
10320
10298
10277
10260
10253
10264
10293
10329
10357
10363
10343
10302
10250
10204
10182
10196
10243
10300
10336
10333
10298
10258
10239
10245
10263
10272
10261
10239
10221
10222
10241
10265
10280
10278
10266
10254
10246
10242
10238
10234
10236
10247
10264
10280
10285
10276
10259
10243
10238
10248
10265
10274
10264
10237
10213
10209
10228
10254
10266
10259
10247
10243
10245
10241
10227
10213
10211
10224
10238
10244
10245
10250
10259
10255
10230
10196
10185
10212
10257
10279
10259
10218
10199
10224
10270
10295
10277
10235
10202
10198
10213
10228
10233
10236
10243
10253
10258
10255
10248
10243
10241
10236
10226
10213
10202
10196
10194
10194
10199
10212
10234
10261
10284
10290
10275
10245
10217
10206
10219
10246
10273
10286
10284
10274
10261
10250
10244
10245
10249
10248
10236
10215
10200
10201
10217
10234
10240
10236
10232
10237
10247
10257
10267
10283
10302
10313
10304
10279
10259
10265
10294
10322
10330
10315
10296
10287
10289
10289
10279
10263
10249
10240
10233
10227
10224
10228
10238
10245
10246
10244
10246
10252
10254
10246
10229
10214
10207
10209
10213
10214
10215
10219
10224
10224
10219
10214
10217
10229
10241
10240
10223
10199
10182
10179
10183
10185
10181
10178
10181
10185
10177
10158
10148
10178
10260
10376
10489
10576
10646
10728
10842
10976
11099
11187
11238
11255
11233
11157
11018
10830
10631
10455
10313
10196
10092
9999
9931
9906
9928
9989
10063
10120
10142
10135
10125
10137
10175
10216
10236
10229
10216
10218
10235
10246
10232
10198
10172
10176
10206
10234
10237
10215
10189
10182
10196
10220
10237
10238
10226
10210
10197
10195
10206
10230
10260
10282
10284
10269
10248
10239
10246
10258
10258
10243
10224
10219
10235
10260
10275
10271
10258
10249
10249
10253
10257
10262
10275
10292
10299
10289
10270
10262
10276
10304
10325
10329
10322
10316
10313
10309
10299
10290
10290
10300
10310
10314
10315
10321
10334
10349
10362
10377
10404
10443
10478
10491
10479
10451
10428
10420
10430
10454
10484
10509
10514
10498
10476
10468
10481
10502
10511
10508
10511
10535
10570
10588
10575
10544
10525
10532
10554
10565
10554
10533
10519
10518
10524
10532
10540
10546
10542
10521
10486
10456
10443
10447
10451
10442
10419
10391
10361
10331
10307
10299
10310
10327
10332
10314
10281
10248
10222
10202
10184
10177
10185
10205
10221
10224
10224
10234
10251
10256
10237
10207
10197
10220
10253
10255
10214
10157
10128
10145
10184
10209
10208
10196
10193
10202
10209
10206
10198
10196
10199
10198
10192
10190
10201
10224
10241
10242
10230
10222
10227
10238
10237
10216
10183
10160
10163
10189
10219
10229
10215
10192
10187
10209
10244
10262
10244
10202
10167
10160
10178
10198
10209
10218
10237
10262
10272
10249
10203
10163
10152
10167
10186
10190
10178
10161
10148
10142
10142
10154
10178
10204
10217
10207
10179
10152
10141
10148
10167
10189
10208
10219
10218
10204
10183
10164
10156
10160
10168
10173
10174
10170
10160
10146
10131
10122
10124
10137
10151
10160
10158
10152
10148
10156
10176
10203
10226
10236
10228
10203
10169
10136
10116
10118
10136
10153
10153
10130
10101
10093
10116
10156
10183
10182
10161
10146
10149
10164
10175
10173
10166
10165
10166
10160
10140
10117
10108
10121
10146
10167
10178
10179
10178
10172
10160
10144
10133
10135
10146
10152
10142
10124
10114
10131
10172
10215
10230
10206
10158
10118
10109
10129
10156
10171
10175
10182
10196
10203
10185
10143
10101
10086
10101
10123
10129
10120
10112
10120
10137
10149
10151
10155
10171
10188
10191
10178
10168
10179
10209
10229
10219
10187
10163
10168
10193
10213
10216
10210
10211
10220
10225
10216
10201
10193
10192
10186
10166
10140
10126
10134
10152
10160
10148
10126
10111
10110
10118
10127
10131
10129
10125
10122
10127
10140
10154
10152
10127
10088
10060
10067
10105
10149
10171
10162
10135
10114
10109
10118
10130
10137
10139
10139
10137
10130
10121
10117
10133
10183
10263
10359
10448
10518
10579
10650
10744
10856
10964
11045
11088
11090
11048
10958
10819
10648
10473
10316
10186
10077
9982
9904
9857
9853
9890
9952
10014
10057
10074
10072
10066
10070
10088
10112
10136
10154
10169
10179
10179
10160
10127
10094
10084
10109
10158
10204
10225
10216
10194
10178
10176
10180
10176
10164
10149
10140
10134
10123
10105
10090
10096
10127
10167
10193
10192
10176
10162
10160
10167
10173
10176
10176
10174
10163
10143
10128
10138
10178
10230
10263
10258
10229
10202
10195
10207
10224
10237
10244
10245
10240
10227
10215
10215
10231
10251
10259
10250
10229
10213
10211
10228
10260
10302
10344
10371
10372
10350
10321
10301
10297
10308
10333
10369
10410
10441
10449
10432
10405
10384
10379
10387
10402
10425
10452
10472
10472
10451
10431
10431
10454
10481
10489
10481
10473
10482
10497
10499
10481
10459
10456
10478
10509
10528
10525
10503
10467
10421
10378
10355
10357
10371
10370
10341
10299
10271
10268
10274
10269
10249
10229
10220
10220
10218
10216
10224
10240
10246
10220
10166
10119
10111
10140
10170
10172
10148
10127
10128
10141
10147
10138
10132
10140
10155
10156
10137
10116
10114
10132
10154
10166
10171
10175
10176
10162
10131
10106
10112
10153
10197
10210
10180
10136
10110
10116
10136
10149
10151
10149
10151
10155
10151
10139
10127
10126
10139
10163
10188
10206
10209
10196
10176
10162
10165
10181
10195
10193
10172
10143
10116
10097
10089
10092
10108
10130
10149
10153
10140
10121
10110
10114
10130
10153
10171
10177
10165
10138
10109
10096
10106
10132
10153
10155
10143
10132
10139
10159
10177
10179
10161
10133
10108
10092
10087
10091
10107
10132
10162
10185
10189
10170
10134
10096
10071
10067
10082
10103
10118
10118
10107
10096
10097
10112
10133
10143
10136
10117
10099
10095
10103
10115
10122
10119
10110
10098
10085
10078
10084
10108
10148
10186
10208
10203
10175
10136
10097
10066
10052
10057
10077
10095
10099
10091
10085
10099
10132
10167
10180
10162
10127
10094
10076
10074
10081
10092
10108
10121
10127
10118
10097
10076
10064
10069
10089
10119
10149
10170
10173
10157
10129
10102
10089
10092
10102
10109
10107
10097
10088
10087
10098
10117
10137
10150
10153
10148
10141
10135
10134
10139
10148
10159
10171
10183
10193
10199
10198
10183
10154
10122
10101
10101
10113
10124
10122
10116
10120
10141
10164
10167
10138
10094
10060
10055
10072
10091
10103
10109
10115
10120
10113
10090
10059
10041
10046
10067
10085
10090
10084
10075
10068
10062
10058
10065
10090
10130
10164
10166
10128
10069
10021
10004
10019
10050
10085
10125
10174
10228
10279
10323
10369
10430
10510
10600
10688
10772
10860
10950
11019
11034
10977
10860
10710
10554
10396
10236
10085
9965
9895
9874
9880
9894
9914
9947
9994
10041
10067
10068
10055
10049
10057
10071
10081
10086
10094
10112
10135
10149
10149
10139
10133
10140
10153
10155
10134
10096
10062
10050
10062
10083
10094
10094
10095
10112
10144
10171
10172
10148
10117
10105
10121
10152
10177
10184
10172
10151
10130
10116
10111
10119
10139
10161
10173
10166
10142
10118
10112
10130
10163
10187
10185
10161
10136
10131
10150
10179
10200
10206
10206
10205
10199
10181
10157
10147
10171
10218
10259
10268
10249
10231
10236
10261
10281
10278
10264
10259
10269
10279
10276
10265
10269
10300
10344
10374
10379
10373
10377
10391
10398
10384
10361
10356
10383
10428
10457
10453
10430
10412
10412
10421
10425
10419
10414
10417
10424
10425
10417
10409
10411
10424
10434
10430
10413
10392
10378
10372
10365
10350
10329
10305
10285
10266
10250
10240
10240
10247
10249
10232
10194
10151
10127
10133
10160
10179
10170
10134
10090
10063
10062
10082
10105
10119
10119
10105
10086
10071
10069
10081
10099
10113
10120
10127
10141
10157
10158
10130
10085
10051
10053
10088
10128
10146
10138
10122
10115
10114
10108
10093
10082
10087
10105
10118
10111
10096
10098
10128
10164
10173
10145
10102
10081
10096
10131
10156
10159
10149
10136
10121
10099
10075
10072
10101
10150
10185
10183
10151
10116
10104
10111
10118
10113
10101
10094
10097
10103
10105
10100
10093
10087
10085
10088
10102
10123
10137
10133
10110
10092
10101
10138
10175
10182
10150
10098
10057
10044
10052
10066
10075
10079
10083
10090
10097
10103
10105
10103
10102
10106
10116
10124
10119
10098
10070
10053
10054
10070
10086
10095
10099
10103
10104
10094
10072
10049
10041
10048
10057
10052
10035
10019
10022
10048
10086
10126
10159
10175
10170
10141
10103
10075
10069
10083
10100
10105
10096
10077
10056
10037
10028
10034
10054
10076
10091
10095
10098
10107
10112
10100
10072
10045
10041
10064
10095
10114
10117
10114
10115
10115
10103
10081
10064
10059
10059
10049
10031
10022
10039
10077
10114
10133
10138
10145
10156
10158
10135
10093
10052
10031
10030
10038
10055
10086
10133
10178
10195
10177
10140
10115
10115
10132
10150
10161
10168
10171
10165
10144
10114
10091
10086
10093
10100
10094
10079
10064
10055
10054
10059
10066
10077
10087
10091
10086
10073
10062
10060
10072
10092
10104
10099
10076
10051
10043
10060
10089
10109
10107
10087
10068
10059
10057
10054
10045
10039
10043
10054
10065
10069
10067
10062
10059
10064
10085
10131
10202
10287
10373
10455
10540
10632
10729
10819
10894
10952
10993
11006
10975
10891
10757
10590
10410
10235
10080
9959
9877
9828
9803
9802
9827
9879
9942
9988
10006
10006
10013
10036
10067
10085
10085
10075
10064
10055
10045
10042
10061
10103
10146
10161
10138
10097
10069
10066
10076
10085
10090
10096
10104
10107
10099
10093
10105
10136
10162
10159
10127
10092
10077
10086
10098
10099
10091
10087
10095
10108
10119
10127
10136
10145
10150
10149
10146
10142
10132
10114
10098
10103
10139
10189
10223
10221
10196
10174
10169
10174
10174
10170
10177
10198
10217
10217
10200
10189
10199
10219
10224
10208
10190
10197
10231
10268
10284
10281
10276
10283
10291
10288
10273
10263
10268
10282
10293
10300
10314
10337
10355
10350
10328
10319
10349
10414
10477
10504
10491
10462
10438
10423
10410
10397
10395
10415
10447
10471
10467
10438
10402
10380
10380
10395
10409
10411
10395
10364
10328
10300
10286
10285
10288
10286
10274
10249
10218
10189
10172
10169
10173
10174
10170
10165
10166
10169
10165
10146
10118
10099
10101
10117
10127
10115
10086
10060
10056
10076
10103
10115
10103
10075
10052
10047
10060
10080
10094
10104
10115
10129
10134
10121
10094
10072
10075
10104
10136
10143
10122
10089
10065
10057
10060
10068
10079
10092
10101
10094
10076
10060
10064
10086
10112
10127
10130
10129
10127
10118
10100
10087
10093
10117
10141
10143
10127
10114
10121
10139
10145
10129
10105
10091
10088
10079
10058
10040
10049
10086
10122
10125
10091
10054
10050
10088
10142
10179
10183
10160
10128
10098
10074
10057
10046
10044
10053
10073
10099
10119
10121
10105
10085
10080
10093
10105
10094
10058
10021
10014
10047
10099
10138
10144
10121
10085
10050
10031
10033
10056
10088
10109
10105
10081
10056
10044
10045
10049
10046
10043
10049
10072
10102
10125
10128
10110
10080
10058
10053
10066
10080
10081
10066
10049
10045
10051
10055
10050
10046
10064
10105
10140
10138
10098
10053
10041
10067
10097
10095
10058
10015
10003
10027
10066
10092
10094
10077
10054
10036
10026
10024
10027
10036
10053
10083
10121
10146
10139
10099
10051
10031
10051
10091
10114
10106
10081
10064
10063
10071
10079
10094
10123
10159
10180
10170
10142
10124
10130
10151
10166
10165
10156
10147
10132
10104
10069
10048
10054
10076
10086
10072
10045
10030
10037
10050
10055
10056
10069
10101
10131
10130
10092
10037
10001
10001
10028
10061
10082
10086
10073
10050
10023
10004
10002
10016
10040
10062
10072
10069
10058
10048
10045
10048
10051
10047
10040
10043
10068
10114
10167
10217
10274
10354
10461
10578
10679
10756
10826
10909
10997
11055
11048
10970
10844
10699
10546
10384
10216
10061
9939
9859
9812
9791
9795
9830
9890
9955
10000
10016
10012
10007
10011
10025
10044
10059
10069
10077
10084
10089
10089
10080
10067
10060
10065
10084
10104
10115
10112
10102
10089
10078
10068
10063
10069
10083
10095
10093
10083
10081
10100
10131
10149
10138
10110
10090
10092
10103
10102
10086
10076
10095
10141
10184
10194
10172
10143
10131
10137
10144
10140
10127
10116
10117
10127
10143
10159
10173
10181
10177
10164
10147
10139
10143
10157
10177
10200
10220
10230
10221
10196
10173
10173
10206
10259
10303
10318
10300
10269
10245
10240
10247
10257
10266
10278
10297
10318
10329
10326
10317
10320
10342
10379
10414
10437
10449
10455
10454
10436
10402
10369
10363
10388
10421
10431
10413
10392
10396
10428
10457
10456
10427
10400
10399
10415
10417
10390
10345
10312
10305
10311
10314
10309
10304
10308
10311
10301
10274
10238
10205
10178
10153
10131
10117
10114
10113
10105
10094
10092
10107
10128
10136
10122
10103
10101
10119
10131
10114
10072
10037
10040
10082
10131
10152
10139
10111
10090
10083
10084
10089
10098
10114
10129
10133
10123
10109
10102
10106
10113
10115
10113
10113
10120
10128
10125
10109
10087
10070
10067
10079
10098
10115
10124
10126
10124
10125
10128
10126
10116
10102
10094
10104
10129
10154
10164
10159
10150
10148
10151
10148
10131
10108
10094
10098
10113
10124
10123
10118
10122
10139
10160
10168
10156
10131
10107
10098
10105
10119
10124
10115
10095
10078
10074
10083
10094
10095
10086
10078
10082
10095
10107
10109
10103
10102
10113
10132
10145
10143
10123
10092
10062
10045
10050
10078
10115
10140
10141
10119
10086
10057
10041
10041
10060
10094
10130
10144
10124
10084
10057
10072
10118
10159
10157
10112
10057
10027
10032
10053
10071
10083
10095
10110
10121
10117
10100
10084
10079
10086
10095
10099
10099
10097
10094
10090
10088
10093
10108
10128
10143
10146
10134
10109
10080
10061
10063
10085
10110
10115
10091
10055
10039
10058
10098
10128
10133
10120
10108
10105
10102
10085
10058
10039
10043
10068
10096
10112
10117
10123
10138
10164
10189
10198
10182
10147
10108
10086
10090
10115
10143
10165
10182
10202
10219
10218
10189
10146
10113
10106
10113
10113
10098
10083
10088
10110
10127
10119
10089
10060
10053
10070
10101
10132
10156
10165
10152
10118
10080
10065
10081
10111
10129
10125
10108
10095
10089
10082
10070
10061
10065
10074
10075
10060
10044
10043
10057
10066
10052
10028
10022
10052
10104
10151
10185
10225
10288
10375
10465
10544
10625
10726
10847
10962
11041
11075
11071
11038
10965
10838
10661
10461
10272
10110
9975
9866
9794
9775
9809
9875
9944
10001
10045
10081
10104
10109
10095
10072
10057
10064
10090
10119
10134
10126
10098
10069
10055
10063
10084
10104
10115
10120
10123
10127
10129
10130
10129
10130
10128
10118
10102
10091
10096
10117
10142
10157
10162
10159
10153
10144
10133
10129
10143
10171
10196
10193
10160
10118
10095
10103
10133
10167
10193
10208
10214
10211
10202
10191
10182
10173
10161
10148
10144
10162
10195
10225
10234
10225
10214
10219
10236
10249
10249
10243
10248
10272
10303
10325
10324
10303
10272
10242
10226
10235
10269
10315
10351
10362
10350
10335
10334
10351
10374
10390
10395
10394
10396
10410
10438
10475
10508
10519
10499
10458
10424
10424
10461
10507
10530
10511
10464
10420
10404
10421
10452
10478
10486
10481
10470
10457
10439
10413
10383
10359
10351
10356
10360
10352
10331
10303
10279
10259
10241
10231
10236
10257
10281
10287
10263
10216
10172
10146
10139
10140
10144
10154
10174
10196
10204
10188
10155
10125
10117
10129
10145
10145
10122
10085
10056
10056
10088
10133
10164
10164
10141
10121
10121
10137
10146
10135
10113
10105
10119
10142
10153
10152
10154
10174
10203
10217
10206
10187
10184
10204
10222
10213
10179
10154
10164
10200
10228
10216
10171
10126
10109
10121
10142
10154
10156
10155
10152
10145
10137
10138
10154
10179
10194
10186
10163
10146
10148
10164
10181
10190
10194
10195
10192
10180
10158
10139
10134
10139
10136
10115
10085
10075
10104
10164
10219
10237
10212
10168
10132
10119
10123
10135
10151
10168
10177
10164
10127
10084
10068
10095
10151
10199
10212
10190
10156
10132
10121
10115
10110
10110
10121
10136
10140
10131
10119
10123
10145
10171
10183
10180
10171
10165
10156
10138
10117
10112
10133
10167
10184
10166
10128
10099
10101
10125
10146
10149
10143
10144
10157
10167
10158
10131
10106
10102
10118
10141
10154
10152
10140
10127
10118
10118
10131
10157
10186
10200
10187
10151
10109
10084
10084
10103
10125
10138
10143
10144
10148
10155
10161
10164
10168
10175
10183
10184
10174
10156
10142
10136
10134
10131
10125
10128
10149
10186
10221
10237
10230
10214
10201
10193
10182
10166
10157
10167
10195
10224
10235
10223
10203
10186
10173
10155
10128
10102
10094
10108
10132
10148
10149
10143
10143
10155
10172
10180
10171
10148
10119
10096
10088
10096
10114
10133
10144
10143
10135
10123
10111
10101
10098
10107
10129
10156
10172
10164
10131
10090
10060
10056
10075
10106
10138
10168
10206
10262
10341
10436
10538
10636
10732
10827
10924
11017
11096
11148
11156
11107
10993
10819
10614
10412
10242
10110
10008
9926
9866
9840
9852
9892
9940
9982
10016
10048
10082
10113
10134
10140
10136
10127
10118
10110
10110
10127
10156
10181
10183
10157
10121
10102
10113
10144
10167
10166
10143
10118
10104
10104
10113
10129
10155
10188
10210
10207
10178
10147
10138
10158
10185
10195
10181
10161
10159
10173
10186
10183
10170
10168
10185
10207
10214
10200
10186
10189
10208
10220
10213
10195
10193
10213
10237
10240
10216
10192
10194
10222
10248
10249
10228
10211
10215
10235
10250
10252
10249
10258
10277
10294
10298
10294
10298
10317
10342
10356
10355
10347
10345
10354
10369
10386
10409
10439
10465
10468
10438
10388
10351
10353
10392
10443
10476
10483
10474
10468
10471
10478
10482
10484
10490
10497
10499
10488
10472
10465
10477
10500
10512
10499
10464
10425
10397
10382
10373
10366
10364
10369
10376
10368
10339
10299
10267
10257
10266
10277
10275
10256
10227
10198
10176
10168
10174
10190
10200
10193
10165
10129
10104
10103
10123
10151
10170
10175
10169
10157
10140
10120
10099
10088
10094
10119
10149
10166
10160
10138
10121
10125
10151
10179
10189
10175
10147
10126
10122
10134
10150
10159
10156
10145
10133
10130
10137
10150
10162
10166
10164
10159
10150
10135
10116
10104
10116
10152
10189
10202
10183
10154
10145
10162
10183
10180
10150
10115
10098
10101
10108
10111
10122
10153
10196
10224
10215
10174
10131
10107
10102
10107
10119
10144
10180
10206
10198
10155
10105
10080
10087
10108
10123
10131
10144
10165
10180
10173
10145
10117
10107
10114
10125
10130
10128
10117
10099
10075
10060
10069
10104
10142
10154
10132
10095
10073
10080
10105
10132
10150
10154
10144
10114
10073
10042
10039
10070
10114
10151
10172
10180
10176
10153
10112
10070
10053
10070
10102
10115
10099
10070
10057
10069
10091
10106
10110
10108
10101
10084
10058
10043
10060
10109
10161
10180
10159
10119
10090
10083
10089
10095
10100
10106
10111
10103
10081
10061
10059
10078
10099
10105
10098
10096
10109
10132
10145
10137
10117
10104
10106
10116
10120
10110
10089
10069
10064
10079
10112
10146
10161
10147
10113
10085
10082
10100
10122
10130
10123
10115
10117
10127
10135
10137
10137
10144
10155
10160
10151
10136
10129
10148
10188
10227
10240
10214
10165
10125
10118
10137
10156
10150
10122
10096
10096
10121
10144
10144
10122
10098
10089
10096
10103
10104
10100
10099
10102
10103
10098
10093
10093
10098
10101
10099
10099
10105
10114
10112
10094
10070
10058
10065
10083
10098
10103
10104
10105
10106
10098
10081
10063
10053
10053
10057
10066
10092
10145
10227
10318
10402
10471
10537
10614
10708
10813
10917
11004
11060
11076
11046
10972
10854
10695
10505
10307
10135
10012
9943
9906
9884
9874
9887
9926
9976
10013
10030
10042
10064
10091
10105
10094
10072
10066
10087
10117
10131
10118
10097
10092
10106
10123
10125
10114
10106
10112
10127
10140
10149
10159
10174
10189
10193
10187
10178
10173
10168
10153
10128
10111
10123
10169
10225
10256
10241
10193
10141
10111
10112
10136
10171
10209
10244
10267
10267
10241
10203
10179
10183
10210
10234
10233
10207
10179
10175
10200
10237
10267
10280
10280
10274
10264
10248
10228
10215
10217
10233
10255
10279
10303
10323
10334
10334
10327
10329
10346
10371
10385
10376
10354
10340
10345
10367
10394
10423
10455
10487
10504
10500
10486
10487
10514
10553
10578
10574
10552
10533
10520
10506
10486
10474
10490
10530
10567
10574
10549
10521
10515
10530
10547
10554
10555
10558
10552
10520
10463
10409
10394
10422
10462
10476
10456
10423
10400
10391
10382
10371
10369
10385
10403
10391
10338
10266
10219
10223
10265
10309
10325
10308
10274
10242
10224
10226
10243
10264
10281
10289
10293
10295
10293
10281
10263
10256
10271
10301
10318
10305
10274
10257
10272
10308
10337
10348
10351
10359
10367
10355
10316
10275
10263
10286
10318
10331
10324
10318
10329
10344
10343
10326
10319
10343
10382
10399
10375
10330
10310
10335
10382
10409
10398
10369
10355
10369
10399
10420
10424
10411
10388
10359
10335
10331
10357
10402
10437
10439
10409
10372
10352
10351
10358
10360
10361
10375
10407
10443
10463
10459
10440
10428
10435
10451
10456
10438
10407
10385
10389
10415
10443
10454
10448
10435
10427
10422
10416
10407
10400
10401
10409
10421
10434
10447
10455
10450
10429
10406
10403
10432
10476
10504
10496
10466
10445
10454
10481
10498
10490
10464
10441
10431
10429
10431
10436
10451
10473
10491
10498
10498
10505
10521
10540
10547
10541
10529
10518
10510
10503
10501
10508
10523
10534
10530
10516
10510
10522
10544
10554
10539
10506
10478
10470
10484
10507
10529
10543
10547
10542
10537
10542
10562
10583
10589
10572
10545
10532
10543
10570
10597
10618
10635
10649
10649
10626
10587
10558
10561
10597
10641
10665
10659
10629
10591
10558
10539
10543
10571
10612
10646
10656
10642
10621
10607
10603
10602
10605
10620
10653
10692
10713
10702
10667
10631
10618
10631
10655
10672
10680
10687
10704
10733
10763
10777
10768
10743
10726
10730
10752
10769
10760
10722
10675
10644
10639
10649
10658
10659
10658
10662
10674
10688
10702
10714
10723
10725
10718
10704
10693
10692
10698
10700
10690
10672
10657
10656
10672
10696
10713
10716
10706
10693
10688
10696
10711
10720
10718
10711
10711
10722
10735
10733
10715
10699
10705
10740
10792
10847
10906
10987
11101
11234
11357
11446
11505
11559
11625
11700
11753
11754
11688
11556
11373
11164
10956
10779
10654
10588
10565
10566
10572
10575
10580
10594
10623
10669
10725
10777
10812
10825
10820
10809
10800
10793
10785
10778
10779
10795
10825
10854
10864
10845
10808
10774
10765
10786
10824
10854
10859
10841
10818
10807
10818
10841
10860
10862
10850
10831
10817
10814
10822
10837
10857
10878
10896
10906
10900
10879
10852
10835
10842
10874
10913
10934
10923
10891
10866
10874
10912
10955
10973
10960
10933
10912
10901
10891
10876
10868
10884
10923
10966
10984
10969
10945
10940
10967
11009
11042
11052
11047
11044
11053
11070
11084
11082
11060
11022
10983
10969
10995
11051
11108
11139
11144
11147
11167
11198
11214
11199
11165
11143
11153
11182
11204
11203
11190
11184
11189
11198
11202
11206
11218
11241
11258
11256
11238
11224
11228
11244
11249
11225
11180
11141
11133
11159
11198
11219
11205
11163
11117
11088
11080
11076
11058
11029
11007
11008
11028
11043
11033
11000
10964
10939
10926
10915
10905
10904
10914
10924
10917
10897
10884
10895
10925
10945
10931
10893
10862
10860
10883
10907
10916
10914
10915
10922
10925
10922
10919
10929
10953
10977
10983
10966
10931
10892
10865
10864
10891
10932
10961
10957
10926
10892
10883
10897
10914
10923
10932
10958
10998
11020
10996
10935
10882
10872
10904
10941
10951
10936
10920
10918
10924
10928
10935
10958
10992
11009
10983
10918
10853
10829
10853
10897
10927
10932
10927
10925
10927
10926
10920
10921
10938
10964
10977
10961
10917
10868
10843
10852
10888
10922
10935
10921
10899
10888
10900
10924
10945
10953
10947
10934
10913
10885
10855
10839
10847
10875
10905
10923
10925
10919
10913
10906
10892
10876
10868
10872
10882
10886
10878
10865
10859
10867
10883
10897
10899
10883
10852
10819
10804
10824
10871
10918
10937
10920
10885
10854
10836
10828
10827
10840
10870
10907
10923
10906
10869
10841
10842
10861
10872
10859
10832
10813
10810
10819
10829
10837
10849
10865
10877
10876
10864
10849
10837
10833
10837
10847
10861
10870
10863
10844
10826
10823
10839
10860
10870
10867
10855
10841
10825
10805
10792
10794
10810
10824
10822
10806
10798
10810
10836
10848
10833
10803
10784
10790
10807
10814
10812
10818
10850
10898
10929
10912
10850
10775
10723
10711
10731
10764
10800
10832
10855
10859
10837
10798
10766
10760
10782
10810
10820
10810
10804
10827
10878
10928
10941
10910
10857
10814
10796
10795
10798
10800
10804
10809
10807
10793
10775
10765
10764
10763
10755
10749
10759
10778
10782
10751
10697
10662
10676
10724
10759
10749
10706
10677
10686
10721
10747
10747
10737
10739
10751
10754
10735
10708
10698
10717
10752
10781
10789
10773
10737
10685
10632
10599
10599
10633
10686
10752
10834
10935
11035
11109
11147
11178
11244
11360
11495
11596
11634
11614
11560
11481
11369
11220
11044
10865
10700
10563
10468
10432
10454
10506
10546
10556
10558
10588
10650
10706
10717
10684
10648
10648
10678
10695
10674
10629
10599
10602
10621
10629
10623
10620
10636
10659
10663
10641
10616
10616
10644
10675
10682
10662
10636
10624
10631
10642
10644
10631
10615
10606
10614
10635
10658
10670
10666
10652
10640
10635
10634
10635
10643
10667
10706
10737
10735
10696
10640
10602
10597
10611
10621
10615
10605
10610
10634
10668
10695
10708
10709
10705
10701
10699
10700
10698
10688
10671
10656
10656
10671
10690
10697
10691
10684
10692
10716
10743
10760
10765
10762
10755
10745
10737
10742
10768
10809
10841
10848
10834
10823
10833
10859
10882
10887
10878
10869
10864
10858
10846
10836
10841
10867
10902
10928
10935
10924
10900
10868
10831
10798
10782
10789
10808
10824
10830
10827
10820
10805
10776
10735
10698
10685
10697
10715
10716
10694
10666
10653
10664
10682
10682
10653
10605
10563
10547
10560
10582
10595
10593
10586
10585
10589
10580
10549
10508
10484
10499
10542
10580
10584
10554
10513
10487
10484
10491
10495
10493
10490
10489
10488
10490
10499
10517
10541
10558
10565
10560
10550
10533
10512
10496
10499
10527
10562
10579
10564
10532
10509
10511
10526
10535
10531
10525
10524
10524
10511
10490
10483
10505
10548
10581
10580
10548
10512
10487
10472
10456
10444
10454
10491
10535
10549
10520
10472
10447
10468
10517
10558
10564
10535
10495
10463
10448
10447
10459
10476
10491
10498
10492
10477
10460
10451
10451
10462
10475
10481
10471
10447
10424
10414
10425
10449
10471
10481
10473
10452
10425
10406
10404
10418
10436
10441
10433
10428
10440
10462
10469
10449
10419
10414
10450
10501
10521
10486
10424
10380
10379
10404
10420
10417
10409
10412
10420
10411
10380
10347
10338
10356
10383
10401
10409
10417
10427
10429
10421
10414
10425
10451
10466
10448
10406
10372
10367
10382
10388
10370
10345
10340
10361
10389
10399
10386
10366
10355
10355
10360
10367
10376
10387
10397
10404
10411
10421
10426
10415
10386
10357
10348
10367
10394
10404
10389
10365
10353
10359
10372
10383
10392
10400
10405
10398
10376
10351
10337
10341
10355
10370
10383
10396
10405
10405
10398
10394
10404
10419
10418
10387
10341
10311
10316
10346
10376
10393
10400
10404
10403
10392
10378
10379
10411
10459
10494
10494
10469
10443
10429
10419
10401
10382
10380
10397
10411
10393
10339
10280
10252
10267
10307
10344
10366
10375
10374
10359
10335
10313
10310
10325
10346
10358
10362
10364
10367
10360
10335
10303
10292
10314
10352
10371
10354
10319
10301
10315
10347
10364
10350
10315
10285
10275
10280
10289
10299
10315
10348
10398
10458
10515
10570
10633
10722
10841
10977
11100
11187
11234
11253
11254
11231
11167
11054
10904
10741
10585
10438
10300
10180
10092
10047
10045
10074
10127
10196
10267
10315
10323
10301
10277
10280
10308
10335
10340
10329
10325
10338
10354
10350
10326
10305
10311
10342
10370
10373
10356
10345
10360
10389
10407
10398
10367
10338
10326
10333
10349
10365
10374
10372
10355
10329
10306
10302
10323
10360
10393
10407
10398
10375
10354
10344
10349
10360
10370
10375
10380
10390
10403
10409
10403
10388
10377
10380
10392
10399
10390
10369
10349
10343
10352
10371
10398
10431
10461
10474
10461
10429
10403
10403
10427
10453
10460
10449
10438
10443
10465
10493
10519
10542
10564
10579
10576
10553
10523
10503
10500
10506
10513
10522
10544
10582
10629
10670
10694
10700
10691
10669
10634
10597
10576
10581
10607
10633
10647
10649
10651
10654
10649
10624
10584
10549
10537
10548
10567
10578
10579
10576
10571
10562
10547
10531
10517
10505
10484
10452
10415
10390
10383
10388
10394
10394
10393
10390
10377
10349
10313
10290
10294
10318
10335
10325
10296
10274
10277
10301
10324
10334
10330
10324
10316
10300
10276
10257
10259
10284
10314
10326
10311
10279
10254
10250
10265
10284
10291
10280
10260
10249
10257
10280
10301
10305
10294
10283
10286
10304
10322
10325
10315
10303
10299
10300
10300
10297
10295
10295
10294
10290
10291
10304
10328
10346
10340
10311
10280
10270
10282
10297
10297
10283
10270
10271
10283
10292
10292
10290
10291
10296
10300
10302
10304
10306
10303
10294
10286
10292
10309
10317
10300
10264
10238
10249
10290
10331
10343
10329
10309
10295
10280
10256
10234
10238
10280
10335
10358
10327
10261
10202
10183
10202
10235
10259
10266
10261
10250
10240
10238
10250
10275
10300
10313
10309
10292
10272
10258
10257
10268
10283
10290
10279
10255
10234
10231
10244
10254
10250
10236
10229
10238
10256
10269
10276
10280
10282
10269
10235
10194
10174
10193
10235
10271
10285
10289
10300
10312
10301
10259
10210
10192
10218
10262
10290
10295
10296
10306
10308
10278
10224
10186
10200
10253
10292
10284
10244
10220
10237
10271
10282
10258
10231
10231
10255
10270
10259
10237
10234
10261
10298
10321
10324
10315
10299
10273
10239
10214
10217
10243
10265
10261
10239
10225
10235
10255
10258
10238
10224
10241
10281
10308
10298
10259
10228
10227
10248
10269
10278
10284
10303
10335
10366
10383
10381
10366
10343
10317
10295
10281
10276
10270
10257
10243
10241
10255
10274
10279
10264
10242
10232
10240
10254
10259
10254
10247
10244
10244
10244
10246
10251
10255
10243
10206
10157
10121
10121
10155
10201
10239
10260
10267
10265
10253
10237
10225
10226
10235
10239
10228
10208
10197
10203
10217
10222
10213
10208
10228
10281
10354
10430
10506
10593
10702
10823
10933
11015
11070
11114
11155
11183
11170
11092
10947
10754
10548
10358
10203
10091
10021
9989
9990
10019
10062
10105
10133
10144
10151
10171
10212
10256
10275
10256
10214
10185
10192
10224
10251
10247
10220
10198
10198
10215
10229
10229
10225
10228
10240
10249
10245
10238
10238
10248
10253
10240
10213
10190
10185
10193
10202
10209
10221
10248
10280
10299
10295
10277
10265
10267
10277
10278
10266
10247
10231
10222
10219
10224
10236
10251
10264
10270
10276
10288
10305
10313
10298
10264
10235
10233
10260
10298
10321
10323
10308
10288
10272
10265
10273
10297
10328
10351
10356
10349
10344
10351
10367
10384
10395
10405
10414
10417
10409
10391
10375
10374
10389
10413
10433
10447
10458
10469
10483
10501
10522
10542
10551
10543
10520
10497
10485
10489
10504
10524
10549
10576
10594
10592
10565
10526
10498
10491
10498
10502
10499
10494
10497
10507
10511
10501
10478
10448
10418
10393
10377
10374
10380
10380
10359
10320
10280
10257
10253
10255
10251
10245
10245
10250
10248
10230
10204
10187
10189
10200
10206
10207
10215
10238
10259
10255
10223
10190
10188
10220
10259
10270
10247
10211
10188
10184
10192
10206
10230
10262
10284
10277
10235
10183
10152
10154
10177
10198
10205
10207
10211
10214
10208
10193
10183
10193
10222
10255
10274
10270
10248
10222
10206
10208
10224
10239
10237
10216
10192
10190
10221
10269
10303
10300
10269
10233
10212
10209
10216
10223
10228
10230
10224
10209
10190
10177
10175
10180
10184
10187
10190
10197
10200
10192
10178
10169
10178
10203
10229
10241
10237
10223
10206
10190
10180
10181
10194
10209
10209
10189
10166
10163
10187
10219
10229
10209
10179
10171
10194
10224
10235
10216
10187
10173
10186
10211
10225
10218
10191
10161
10143
10147
10170
10199
10214
10205
10179
10154
10147
10159
10179
10195
10206
10210
10208
10196
10175
10159
10162
10182
10204
10211
10205
10198
10198
10199
10187
10164
10149
10159
10186
10201
10185
10151
10135
10159
10211
10256
10265
10243
10215
10194
10179
10162
10149
10157
10188
10223
10235
10216
10189
10182
10205
10241
10261
10253
10225
10189
10158
10138
10140
10166
10206
10239
10242
10219
10189
10172
10169
10168
10160
10154
10163
10184
10198
10193
10177
10175
10196
10227
10240
10224
10196
10182
10191
10209
10223
10236
10255
10276
10284
10266
10236
10223
10241
10274
10291
10278
10252
10239
10248
10262
10263
10250
10240
10238
10236
10221
10194
10171
10167
10176
10188
10196
10206
10219
10225
10210
10185
10178
10207
10258
10290
10274
10222
10172
10152
10154
10152
10135
10121
10134
10172
10211
10226
10215
10195
10178
10165
10150
10138
10139
10153
10166
10163
10144
10124
10119
10133
10162
10205
10266
10344
10430
10514
10600
10700
10817
10935
11029
11090
11132
11172
11201
11180
11073
10878
10638
10406
10222
10097
10024
9994
9993
10004
10012
10016
10025
10047
10078
10105
10122
10136
10156
10179
10192
10189
10178
10180
10204
10238
10259
10255
10230
10196
10163
10141
10143
10175
10230
10279
10287
10245
10180
10136
10140
10186
10241
10276
10284
10278
10272
10268
10260
10246
10231
10225
10234
10246
10247
10228
10201
10189
10206
10246
10282
10295
10282
10264
10255
10255
10253
10245
10240
10251
10276
10298
10301
10288
10274
10268
10263
10249
10234
10238
10274
10326
10363
10370
10360
10360
10380
10401
10400
10376
10355
10361
10389
10410
10399
10361
10327
10324
10356
10404
10445
10472
10485
10490
10490
10487
10482
10480
10485
10498
10518
10539
10555
10560
10557
10558
10571
10594
10617
10623
10607
10577
10546
10524
10516
10524
10548
10578
10601
10601
10574
10535
10506
10502
10517
10530
10522
10491
10447
10409
10386
10379
10382
10383
10378
10366
10350
10335
10323
10314
10308
10307
10313
10321
10325
10319
10307
10296
10293
10294
10293
10284
10271
10259
10251
10244
10234
10223
10223
10236
10256
10263
10249
10223
10207
10218
10249
10278
10287
10278
10266
10265
10269
10263
10240
10214
10209
10235
10282
10322
10335
10323
10305
10297
10302
10309
10309
10298
10283
10269
10260
10257
10259
10268
10284
10298
10298
10276
10236
10196
10181
10203
10250
10297
10320
10314
10293
10277
10270
10265
10256
10246
10244
10256
10277
10296
10307
10315
10323
10326
10318
10295
10267
10248
10245
10252
10260
10259
10250
10240
10232
10229
10232
10238
10248
10259
10268
10276
10284
10291
10292
10284
10269
10253
10244
10246
10255
10264
10265
10255
10239
10229
10233
10247
10259
10258
10249
10245
10255
10272
10276
10261
10242
10240
10257
10272
10261
10232
10222
10258
10326
10378
10371
10314
10251
10223
10229
10239
10233
10219
10223
10251
10280
10284
10262
10236
10232
10247
10263
10261
10244
10227
10222
10229
10243
10258
10273
10286
10290
10282
10264
10243
10226
10219
10223
10238
10260
10283
10295
10295
10285
10272
10260
10249
10243
10240
10239
10236
10226
10211
10204
10216
10250
10295
10330
10341
10324
10287
10247
10220
10217
10236
10259
10268
10257
10243
10244
10265
10293
10308
10305
10292
10280
10270
10254
10233
10220
10228
10254
10277
10279
10262
10247
10252
10276
10298
10304
10294
10285
10289
10302
10311
10307
10297
10293
10305
10328
10349
10361
10364
10364
10361
10353
10335
10310
10289
10281
10285
10291
10292
10287
10285
10289
10292
10282
10254
10224
10213
10230
10265
10294
10297
10278
10255
10248
10261
10285
10300
10291
10258
10216
10185
10180
10199
10228
10252
10265
10270
10268
10258
10236
10212
10199
10207
10231
10254
10263
10258
10249
10246
10252
10270
10303
10350
10408
10467
10527
10597
10689
10799
10910
11006
11090
11176
11266
11334
11335
11239
11057
10827
10598
10399
10241
10126
10051
10009
9990
9992
10019
10076
10152
10219
10248
10237
10209
10197
10211
10237
10257
10265
10271
10283
10295
10293
10275
10254
10245
10255
10272
10280
10273
10258
10247
10246
10252
10262
10277
10298
10320
10331
10320
10288
10253
10235
10241
10257
10266
10260
10255
10269
10304
10341
10355
10339
10306
10279
10270
10276
10289
10307
10327
10342
10338
10314
10287
10280
10299
10330
10352
10353
10345
10341
10342
10345
10350
10364
10391
10418
10423
10395
10353
10323
10318
10331
10345
10360
10385
10424
10463
10481
10469
10444
10425
10419
10422
10427
10439
10461
10485
10493
10479
10463
10472
10519
10584
10633
10644
10620
10578
10533
10498
10480
10487
10516
10553
10582
10597
10609
10626
10643
10645
10628
10601
10584
10579
10577
10566
10552
10553
10575
10601
10604
10569
10510
10454
10421
10410
10410
10414
10422
10435
10446
10442
10420
10387
10354
10332
10318
10303
10282
10257
10242
10249
10276
10305
10315
10298
10268
10252
10260
10280
10289
10282
10277
10296
10337
10365
10346
10279
10203
10164
10178
10221
10251
10251
10236
10229
10245
10277
10309
10332
10341
10335
10313
10281
10254
10247
10259
10276
10283
10278
10272
10275
10285
10289
10283
10279
10289
10316
10341
10341
10313
10274
10251
10255
10275
10292
10293
10283
10276
10278
10285
10287
10282
10278
10281
10294
10305
10303
10286
10263
10250
10254
10268
10283
10290
10290
10287
10280
10267
10246
10231
10235
10262
10296
10314
10306
10283
10271
10283
10311
10332
10331
10309
10280
10255
10237
10229
10235
10259
10293
10316
10313
10288
10261
10252
10258
10264
10255
10232
10212
10209
10222
10241
10255
10261
10267
10277
10288
10293
10287
10272
10257
10256
10275
10302
10316
10300
10264
10236
10244
10283
10322
10326
10292
10253
10246
10277
10322
10344
10332
10301
10273
10258
10251
10246
10244
10250
10260
10265
10262
10258
10264
10278
10290
10288
10273
10260
10258
10267
10278
10286
10295
10306
10316
10317
10308
10299
10301
10310
10309
10284
10244
10218
10231
10282
10340
10367
10349
10303
10263
10249
10259
10275
10279
10270
10257
10254
10266
10286
10302
10301
10284
10264
10259
10277
10306
10325
10321
10306
10305
10333
10378
10407
10395
10347
10294
10267
10273
10299
10326
10349
10371
10391
10401
10394
10376
10360
10357
10365
10371
10370
10361
10351
10343
10339
10346
10366
10395
10415
10413
10386
10354
10338
10345
10365
10380
10385
10383
10381
10375
10364
10350
10343
10349
10362
10371
10372
10369
10365
10362
10352
10337
10324
10325
10340
10359
10367
10360
10345
10331
10321
10319
10323
10336
10353
10369
10378
10383
10387
10389
10383
10367
10349
10342
10351
10365
10369
10360
10353
10371
10425
10510
10610
10713
10813
10904
10985
11061
11141
11230
11317
11376
11375
11306
11180
11024
10859
10697
10542
10398
10272
10174
10117
10108
10146
10213
10280
10320
10326
10316
10313
10329
10355
10375
10384
10387
10396
10413
10435
10455
10469
10475
10465
10437
10397
10366
10362
10392
10440
10479
10492
10480
10459
10444
10439
10441
10444
10446
10451
10455
10453
10441
10429
10431
10457
10501
10539
10549
10530
10503
10493
10506
10523
10522
10498
10471
10457
10461
10467
10466
10466
10484
10525
10572
10598
10595
10579
10574
10587
10604
10610
10603
10599
10605
10612
10600
10566
10531
10524
10552
10593
10619
10617
10601
10595
10609
10636
10667
10698
10729
10753
10751
10716
10665
10635
10652
10710
10771
10803
10803
10795
10799
10813
10825
10826
10826
10836
10856
10869
10869
10866
10875
10899
10919
10911
10880
10848
10839
10850
10861
10854
10837
10834
10853
10879
10889
10874
10848
10832
10830
10832
10821
10797
10765
10734
10706
10679
10662
10661
10680
10707
10724
10718
10691
10656
10630
10622
10631
10647
10655
10644
10618
10587
10564
10555
10560
10579
10610
10646
10672
10671
10642
10603
10580
10583
10601
10612
10604
10585
10574
10579
10593
10609
10624
10640
10654
10657
10639
10609
10584
10581
10601
10631
10655
10663
10652
10628
10605
10598
10614
10645
10671
10676
10662
10649
10649
10656
10650
10624
10592
10579
10590
10608
10614
10607
10605
10625
10659
10681
10677
10660
10653
10665
10679
10675
10646
10611
10591
10593
10604
10612
10616
10624
10640
10657
10665
10664
10659
10656
10651
10641
10623
10606
10598
10605
10623
10643
10656
10654
10637
10618
10613
10630
10656
10671
10659
10629
10603
10599
10612
10622
10616
10600
10591
10600
10622
10642
10654
10661
10669
10674
10670
10652
10629
10612
10606
10611
10622
10632
10632
10619
10596
10579
10585
10619
10662
10684
10675
10650
10639
10653
10673
10672
10643
10608
10593
10608
10634
10651
10654
10655
10660
10662
10650
10625
10604
10600
10612
10625
10626
10620
10619
10630
10645
10653
10650
10646
10646
10650
10649
10639
10626
10622
10631
10646
10657
10662
10667
10675
10681
10675
10652
10621
10596
10590
10604
10628
10650
10663
10668
10667
10663
10658
10651
10648
10654
10666
10677
10679
10666
10644
10625
10618
10625
10642
10659
10669
10670
10664
10658
10654
10654
10656
10660
10666
10677
10691
10697
10690
10673
10667
10686
10727
10761
10761
10718
10660
10626
10639
10689
10747
10783
10788
10767
10734
10703
10687
10691
10708
10717
10703
10665
10623
10601
10605
10624
10640
10649
10657
10666
10669
10652
10617
10587
10585
10620
10672
10707
10701
10657
10604
10573
10580
10618
10664
10689
10684
10656
10629
10621
10632
10652
10664
10662
10648
10629
10613
10603
10599
10599
10596
10592
10593
10617
10674
10763
10870
10978
11080
11177
11273
11364
11441
11505
11558
11599
11615
11583
11489
11336
11149
10956
10778
10624
10500
10411
10364
10355
10374
10404
10431
10453
10475
10509
10559
10621
10680
10715
10718
10692
10656
10630
10620
10620
10619
10612
10602
10599
10606
10619
10632
10643
10656
10675
10697
10709
10695
10655
10604
10572
10576
10611
10651
10671
10662
10640
10625
10625
10636
10646
10652
10655
10659
10662
10661
10659
10660
10668
10677
10679
10672
10667
10674
10696
10720
10729
10717
10691
10666
10652
10655
10672
10701
10736
10765
10770
10747
10707
10676
10673
10698
10731
10754
10760
10759
10762
10771
10776
10774
10767
10766
10776
10789
10794
10790
10784
10788
10805
10831
10858
10877
10886
10880
10861
10836
10823
10834
10868
10911
10942
10954
10949
10936
10921
10908
10903
10914
10939
10964
10968
10948
10922
10918
10945
10985
11010
11006
10980
10952
10932
10916
10897
10879
10866
10859
10848
10825
10796
10778
10774
10775
10765
10740
10715
10705
10707
10704
10683
10651
10627
10626
10640
10650
10648
10641
10642
10655
10669
10669
10650
10622
10601
10599
10613
10632
10640
10629
10602
10574
10561
10567
10583
10593
10594
10593
10600
10613
10620
10616
10606
10604
10616
10628
10627
10609
10591
10588
10597
10606
10603
10596
10597
10613
10632
10638
10627
10609
10599
10600
10604
10608
10611
10617
10620
10611
10590
10567
10556
10562
10575
10584
10584
10583
10584
10584
10575
10563
10560
10573
10600
10621
10625
10609
10586
10567
10556
10554
10561
10575
10587
10587
10574
10559
10562
10585
10614
10623
10604
10564
10527
10505
10499
10501
10507
10519
10541
10569
10593
10599
10580
10538
10489
10460
10467
10506
10548
10561
10539
10508
10501
10531
10572
10589
10568
10523
10482
10461
10459
10472
10504
10554
10607
10631
10603
10533
10459
10420
10429
10467
10506
10532
10542
10542
10533
10513
10490
10475
10479
10500
10524
10535
10524
10500
10480
10479
10495
10509
10501
10466
10431
10425
10463
10523
10567
10574
10553
10527
10508
10486
10450
10407
10384
10397
10437
10476
10492
10487
10476
10471
10465
10453
10437
10428
10434
10450
10467
10480
10486
10485
10471
10445
10421
10416
10433
10457
10463
10445
10421
10417
10443
10479
10503
10500
10482
10463
10453
10450
10448
10443
10434
10425
10417
10414
10419
10428
10437
10440
10438
10434
10430
10427
10427
10438
10463
10495
10515
10508
10476
10440
10423
10433
10464
10503
10541
10570
10581
10566
10531
10495
10481
10496
10521
10528
10504
10457
10407
10373
10359
10365
10384
10411
10435
10446
10440
10427
10420
10424
10434
10441
10437
10427
10418
10418
10428
10442
10453
10456
10452
10449
10452
10455
10449
10427
10399
10386
10399
10427
10443
10432
10405
10384
10379
10377
10357
10320
10291
10293
10322
10349
10358
10362
10400
10488
10605
10712
10785
10842
10915
11016
11131
11235
11326
11410
11478
11497
11426
11258
11036
10820
10650
10519
10401
10284
10186
10133
10133
10165
10201
10229
10257
10297
10342
10373
10372
10346
10318
10314
10337
10373
10403
10420
10431
10441
10443
10428
10392
10351
10329
10344
10385
10426
10445
10437
10416
10399
10394
10396
10399
10403
10409
10416
10418
10413
10403
10396
10400
10414
10429
10438
10439
10435
10434
10442
10455
10466
10462
10439
10407
10386
10390
10419
10457
10483
10489
10482
10472
10468
10469
10475
10484
10497
10511
10521
10524
10525
10525
10523
10511
10489
10466
10453
10457
10471
10488
10511
10547
10596
10638
10646
10608
10547
10504
10508
10551
10599
10618
10607
10588
10589
10616
10655
10689
10709
10719
10726
10728
10721
10700
10676
10664
10679
10712
10745
10753
10735
10710
10704
10726
10761
10779
10769
10741
10720
10719
10728
10728
10712
10691
10681
10683
10685
10675
10653
10630
10612
10597
10578
10556
10538
10531
10529
10524
10516
10513
10525
10544
10550
10527
10483
10443
10430
10441
10454
10449
10428
10409
10408
10419
10426
10420
10410
10413
10434
10455
10457
10436
10409
10399
10414
10438
10451
10441
10418
10398
10390
10389
10390
10395
10409
10434
10460
10472
10461
10434
10407
10396
10403
10420
10433
10434
10427
10418
10416
10421
10430
10437
10439
10436
10429
10420
10415
10419
10433
10454
10469
10474
10470
10470
10481
10499
10508
10497
10468
10432
10401
10378
10360
10351
10357
10380
10405
10412
10393
10363
10349
10364
10395
10422
10434
10442
10458
10479
10483
10459
10421
10397
10407
10437
10461
10458
10438
10422
10419
10423
10417
10403
10396
10410
10443
10472
10478
10457
10420
10386
10370
10371
10382
10393
10394
10388
10379
10378
10387
10401
10411
10414
10415
10417
10420
10418
10407
10394
10391
10404
10429
10451
10457
10445
10421
10394
10376
10378
10402
10435
10457
10453
10425
10398
10393
10414
10436
10436
10409
10379
10374
10402
10442
10463
10453
10426
10406
10405
10417
10422
10412
10390
10370
10364
10373
10393
10415
10428
10430
10422
10412
10408
10416
10430
10442
10444
10437
10427
10422
10427
10440
10460
10476
10478
10459
10422
10384
10364
10370
10397
10429
10453
10462
10457
10445
10432
10427
10435
10452
10463
10455
10427
10398
10390
10411
10450
10482
10490
10477
10455
10439
10435
10445
10468
10499
10525
10535
10524
10502
10482
10471
10470
10476
10493
10520
10549
10560
10540
10498
10462
10457
10484
10519
10535
10523
10495
10466
10445
10431
10424
10425
10435
10445
10448
10444
10448
10468
10501
10528
10535
10525
10515
10517
10525
10526
10513
10495
10482
10478
10473
10458
10441
10435
10452
10485
10516
10532
10529
10517
10502
10488
10476
10465
10459
10455
10454
10455
10458
10467
10485
10518
10576
10666
10784
10904
10997
11049
11081
11132
11232
11371
11506
11584
11575
11480
11325
11139
10950
10775
10625
10499
10393
10307
10246
10225
10247
10300
10363
10417
10456
10483
10504
10522
10539
10554
10566
10569
10561
10543
10528
10527
10538
10549
10551
10546
10548
10562
10580
10584
10567
10536
10509
10498
10502
10517
10536
10557
10580
10598
10606
10602
10588
10570
10554
10550
10563
10590
10615
10622
10607
10586
10579
10597
10626
10644
10640
10623
10611
10612
10619
10619
10607
10590
10579
10582
10597
10619
10644
10665
10681
10689
10693
10695
10695
10695
10695
10700
10709
10717
10718
10712
10709
10717
10732
10742
10737
10720
10709
10716
10738
10763
10781
10791
10797
10798
10789
10777
10774
10788
10814
10838
10851
10862
10883
10914
10938
10935
10907
10880
10878
10906
10947
10979
10990
10985
10975
10963
10951
10935
10918
10904
10898
10904
10917
10930
10930
10913
10889
10872
10867
10865
10851
10822
10792
10779
10783
10790
10782
10761
10740
10731
10730
10724
10709
10695
10696
10711
10727
10723
10695
10651
10612
10596
10610
10645
10682
10695
10673
10629
10594
10592
10620
10654
10668
10656
10637
10627
10633
10647
10661
10677
10695
10713
10717
10700
10666
10634
10619
10627
10646
10661
10663
10655
10648
10653
10665
10677
10680
10678
10681
10694
10708
10707
10693
10681
10694
10729
10760
10758
10718
10667
10635
10635
10657
10681
10703
10723
10735
10730
10704
10674
10661
10675
10701
10715
10709
10693
10681
10674
10667
10663
10673
10701
10730
10735
10707
10667
10647
10662
10692
10710
10706
10694
10693
10706
10722
10730
10730
10726
10720
10708
10687
10663
10647
10644
10651
10659
10666
10669
10670
10671
10678
10693
10713
10727
10728
10717
10708
10706
10703
10689
10667
10654
10666
10697
10719
10710
10674
10638
10624
10637
10661
10681
10692
10695
10690
10679
10667
10662
10670
10685
10694
10694
10692
10693
10696
10696
10695
10701
10719
10736
10733
10708
10678
10670
10687
10707
10708
10688
10673
10677
10697
10709
10705
10695
10695
10705
10706
10685
10652
10630
10634
10661
10693
10722
10751
10777
10791
10777
10737
10689
10661
10663
10691
10730
10765
10784
10775
10736
10681
10635
10624
10648
10688
10714
10716
10704
10695
10698
10709
10719
10726
10732
10741
10754
10766
10775
10778
10774
10762
10747
10734
10728
10731
10739
10748
10759
10770
10784
10800
10812
10815
10807
10789
10770
10757
10751
10745
10731
10706
10676
10654
10650
10668
10704
10747
10783
10798
10788
10759
10729
10714
10717
10726
10723
10703
10674
10652
10648
10665
10694
10727
10751
10757
10745
10724
10710
10714
10728
10735
10722
10693
10667
10658
10661
10665
10663
10665
10689
10737
10799
10860
10915
10978
11060
11163
11272
11375
11466
11548
11619
11665
11664
11600
11478
11320
11153
10999
10866
10753
10660
10589
10540
10512
10505
10517
10549
10594
10639
10672
10689
10699
10712
10732
10748
10748
10734
10720
10721
10738
10755
10759
10747
10733
10728
10734
10740
10739
10735
10737
10751
10769
10777
10770
10752
10735
10729
10735
10749
10763
10774
10779
10780
10778
10774
10767
10758
10749
10744
10745
10750
10757
10762
10767
10778
10794
10807
10808
10796
10778
10767
10770
10783
10798
10810
10823
10836
10845
10839
10817
10790
10777
10789
10820
10850
10862
10857
10850
10856
10875
10894
10898
10885
10865
10854
10862
10885
10911
10932
10943
10944
10940
10935
10936
10943
10954
10965
10976
10991
11013
11036
11047
11037
11012
10995
11002
11036
11077
11102
11099
11076
11049
11030
11025
11031
11045
11062
11073
11070
11056
11039
11035
11047
11066
11077
11068
11042
11008
10975
10945
10923
10914
10921
10938
10948
10936
10900
10854
10819
10806
10808
10814
10820
10834
10858
10878
10872
10827
10760
10707
10698
10729
10770
10793
10788
10771
10757
10754
10756
10759
10762
10763
10755
10731
10699
10679
10689
10727
10771
10794
10788
10766
10747
10738
10729
10715
10699
10695
10710
10739
10765
10774
10766
10752
10746
10754
10771
10784
10780
10760
10734
10722
10735
10770
10807
10825
10814
10782
10745
10720
10714
10724
10740
10756
10769
10783
10797
10809
10816
10814
10807
10796
10780
10753
10718
10686
10678
10706
10759
10810
10829
10810
10767
10726
10706
10709
10728
10749
10763
10765
10756
10748
10751
10768
10788
10793
10775
10743
10715
10708
10722
10745
10763
10765
10751
10731
10720
10727
10750
10770
10768
10741
10709
10693
10697
10705
10700
10683
10678
10704
10755
10800
10810
10784
10745
10717
10709
10711
10716
10723
10737
10755
10767
10769
10762
10752
10741
10726
10705
10688
10685
10700
10721
10730
10722
10707
10701
10714
10736
10750
10745
10725
10706
10706
10728
10758
10777
10774
10754
10729
10713
10707
10711
10723
10746
10776
10797
10796
10769
10735
10715
10720
10740
10752
10749
10737
10728
10726
10724
10718
10717
10731
10760
10787
10789
10762
10723
10701
10709
10740
10765
10766
10741
10708
10688
10695
10726
10769
10807
10830
10829
10803
10760
10719
10702
10720
10763
10808
10832
10832
10824
10824
10834
10841
10836
10822
10811
10806
10798
10777
10744
10714
10705
10714
10726
10729
10726
10725
10735
10750
10763
10771
10778
10782
10771
10737
10685
10641
10631
10660
10712
10757
10777
10772
10755
10740
10730
10724
10716
10707
10703
10710
10725
10737
10739
10729
10719
10719
10727
10729
10712
10685
10673
10697
10759
10842
10923
11001
11084
11180
11283
11379
11460
11530
11593
11643
11665
11645
11576
11464
11316
11141
10958
10790
10660
10576
10529
10506
10500
10512
10543
10586
10629
10661
10678
10687
10692
10700
10713
10731
10748
10756
10756
10754
10760
10774
10787
10787
10771
10749
10729
10713
10695
10676
10665
10675
10705
10742
10771
10783
10786
10789
10795
10800
10798
10790
10778
10763
10747
10732
10720
10718
10725
10739
10756
10773
10786
10790
10782
10765
10751
10751
10768
10794
10817
10825
10815
10792
10770
10763
10777
10808
10839
10858
10864
10865
10863
10854
10830
10797
10779
10792
10831
10869
10877
10854
10825
10818
10835
10858
10871
10876
10888
10914
10942
10955
10945
10928
10927
10950
10985
11009
11010
10988
10958
10936
10932
10948
10973
10995
11004
11004
11005
11018
11043
11065
11072
11061
11043
11032
11034
11048
11066
11084
11095
11094
11075
11039
11000
10974
10974
10998
11026
11036
11019
10984
10950
10934
10937
10942
10932
10903
10861
10819
10783
10755
10735
10729
10738
10756
10770
10771
10762
10757
10761
10769
10765
10742
10709
10682
10671
10672
10677
10683
10695
10714
10733
10741
10730
10707
10688
10683
10695
10715
10736
10749
10753
10748
10737
10724
10712
10702
10694
10691
10695
10705
10714
10715
10708
10700
10701
10712
10728
10736
10733
10720
10703
10691
10692
10711
10740
10766
10776
10768
10751
10739
10734
10727
10709
10684
10665
10664
10676
10688
10691
10690
10692
10699
10706
10708
10712
10724
10742
10749
10736
10710
10691
10696
10715
10725
10713
10689
10675
10683
10700
10708
10700
10685
10676
10673
10672
10669
10669
10679
10695
10704
10693
10663
10633
10622
10637
10673
10714
10743
10748
10725
10682
10637
10611
10612
10634
10659
10674
10673
10662
10651
10648
10655
10670
10685
10691
10683
10665
10645
10630
10624
10626
10632
10641
10649
10651
10648
10644
10645
10652
10660
10663
10659
10651
10643
10633
10619
10609
10617
10647
10687
10708
10689
10639
10596
10595
10643
10707
10743
10727
10671
10612
10581
10586
10607
10626
10631
10630
10631
10637
10644
10648
10648
10651
10658
10664
10662
10650
10635
10626
10624
10628
10637
10653
10673
10686
10674
10636
10593
10577
10604
10656
10693
10687
10641
10589
10565
10576
10608
10638
10651
10648
10638
10637
10652
10681
10707
10708
10681
10645
10634
10660
10701
10719
10693
10644
10615
10630
10677
10722
10741
10737
10726
10718
10706
10686
10661
10645
10641
10639
10633
10626
10626
10636
10640
10623
10589
10560
10557
10580
10607
10617
10612
10610
10624
10646
10657
10646
10624
10610
10613
10623
10624
10611
10592
10580
10579
10584
10590
10600
10616
10632
10632
10608
10570
10547
10563
10618
10688
10744
10778
10807
10855
10933
11033
11141
11247
11350
11447
11530
11586
11607
11588
11521
11400
11225
11017
10814
10648
10530
10451
10396
10363
10355
10377
10421
10472
10518
10554
10579
10594
10602
10603
10600
10593
10580
10566
10561
10577
10612
10650
10672
10669
10652
10633
10618
10604
10591
10591
10613
10647
10669
10660
10625
10596
10596
10623
10653
10664
10657
10651
10656
10666
10665
10652
10641
10644
10659
10672
10669
10654
10639
10633
10635
10635
10631
10630
10638
10654
10667
10677
10690
10717
10753
10778
10769
10719
10653
10609
10615
10667
10733
10774
10771
10734
10696
10684
10705
10740
10765
10768
10757
10746
10745
10749
10749
10744
10745
10763
10797
10831
10844
10834
10817
10816
10842
10883
10916
10925
10913
10897
10891
10901
10920
10937
10948
10950
10948
10944
10945
10951
10959
10967
10980
11004
11040
11072
11073
11031
10959
10895
10872
10891
10924
10938
10921
10887
10859
10846
10843
10839
10828
10813
10796
10782
10771
10765
10761
10753
10737
10717
10705
10709
10723
10730
10718
10692
10669
10663
10671
10678
10673
10663
10656
10654
10649
10632
10607
10589
10589
10599
10602
10587
10562
10549
10562
10592
10620
10627
10615
10600
10602
10623
10650
10665
10658
10636
10614
10604
10609
10620
10629
10634
10637
10644
10653
10658
10652
10636
10619
10615
10629
10653
10667
10657
10626
10589
10567
10568
10585
10604
10616
10620
10618
10612
10601
10590
10588
10600
10622
10642
10645
10631
10611
10604
10616
10640
10660
10659
10635
10600
10573
10565
10578
10601
10619
10626
10626
10625
10624
10619
10605
10584
10567
10566
10583
10608
10621
10610
10581
10554
10550
10573
10607
10624
10610
10578
10555
10562
10590
10613
10609
10581
10551
10539
10546
10557
10560
10555
10555
10565
10583
10595
10594
10580
10559
10545
10549
10576
10611
10625
10600
10548
10504
10502
10543
10591
10610
10597
10578
10577
10591
10594
10570
10530
10505
10505
10519
10526
10524
10528
10551
10584
10604
10595
10566
10535
10517
10514
10525
10549
10580
10608
10615
10594
10559
10531
10525
10535
10546
10550
10548
10548
10550
10549
10542
10532
10526
10525
10528
10536
10549
10565
10575
10569
10547
10521
10508
10514
10536
10559
10575
10578
10571
10559
10548
10544
10549
10558
10561
10551
10530
10512
10509
10530
10564
10591
10591
10566
10535
10527
10552
10592
10616
10608
10580
10564
10577
10608
10635
10645
10644
10646
10649
10643
10621
10596
10584
10585
10584
10569
10548
10536
10539
10540
10523
10494
10477
10490
10523
10545
10540
10520
10512
10530
10560
10583
10589
10584
10575
10562
10544
10530
10528
10538
10547
10541
10526
10520
10531
10550
10557
10548
10535
10530
10529
10513
10476
10435
10420
10442
10486
10528
10559
10592
10646
10729
10832
10942
11047
11144
11228
11301
11367
11431
11490
11528
11522
11456
11326
11147
10942
10737
10555
10412
10309
10243
10211
10221
10276
10362
10447
10501
10519
10516
10511
10509
10502
10488
10482
10496
10528
10557
10561
10542
10519
10509
10517
10529
10537
10539
10539
10542
10550
10565
10585
10599
10592
10557
10511
10481
10488
10526
10571
10601
10610
10604
10594
10581
10570
10566
10575
10591
10605
10606
10594
10577
10561
10552
10556
10575
10606
10632
10636
10613
10580
10558
10560
10574
10586
10591
10594
10603
10614
10617
10613
10613
10629
10657
10682
10689
10679
10663
10658
10672
10704
10740
10766
10766
10744
10715
10700
10704
10713
10711
10700
10702
10730
10773
10803
10807
10796
10798
10820
10843
10845
10826
10811
10821
10855
10889
10905
10906
10905
10903
10895
10876
10852
10840
10844
10854
10861
10863
10871
10886
10902
10910
10910
10909
10911
10908
10889
10853
10813
10781
10762
10750
10742
10734
10726
10712
10690
10666
10653
10657
10669
10675
10669
10656
10643
10633
10621
10606
10593
10585
10575
10557
10536
10533
10559
10604
10631
10614
10561
10508
10491
10513
10552
10579
10586
10580
10572
10564
10553
10543
10538
10540
10549
10561
10575
10591
10604
10606
10592
10570
10550
10544
10554
10575
10595
10605
10593
10563
10533
10525
10551
10592
10614
10596
10553
10521
10527
10564
10600
10610
10598
10587
10595
10614
10624
10613
10585
10559
10549
10556
10570
10577
10573
10560
10546
10541
10549
10564
10578
10587
10592
10595
10593
10580
10557
10540
10542
10563
10582
10579
10549
10518
10513
10541
10577
10591
10571
10534
10511
10514
10534
10552
10560
10560
10559
10555
10541
10518
10503
10513
10550
10593
10612
10597
10563
10536
10530
10541
10555
10564
10569
10572
10566
10546
10516
10491
10490
10511
10537
10550
10544
10529
10519
10515
10515
10515
10520
10534
10553
10564
10562
10550
10544
10552
10569
10583
10584
10573
10557
10539
10521
10503
10491
10493
10512
10542
10562
10557
10526
10488
10474
10502
10560
10612
10626
10597
10549
10513
10505
10516
10531
10541
10549
10555
10554
10542
10523
10512
10515
10528
10543
10556
10573
10597
10617
10615
10587
10550
10527
10524
10532
10534
10528
10524
10528
10534
10534
10532
10538
10555
10573
10575
10560
10546
10548
10564
10578
10582
10581
10588
10601
10602
10583
10558
10558
10595
10649
10680
10667
10626
10587
10567
10564
10565
10569
10581
10597
10607
10600
10586
10581
10587
10588
10566
10522
10484
10475
10493
10516
10525
10524
10532
10556
10577
10576
10550
10522
10510
10512
10511
10499
10488
10495
10521
10545
10548
10533
10524
10533
10548
10542
10508
10469
10460
10492
10539
10564
10551
10523
10519
10557
10630
10715
10802
10893
10991
11088
11177
11255
11332
11415
11492
11533
11510
11415
11263
11085
10903
10731
10579
10456
10369
10319
10300
10303
10321
10348
10380
10415
10450
10486
10519
10542
10545
10526
10496
10479
10492
10533
10581
10607
10592
10546
10496
10469
10476
10507
10541
10559
10557
10544
10531
10532
10549
10578
10608
10621
10610
10578
10544
10528
10537
10561
10580
10581
10566
10551
10552
10572
10603
10626
10630
10609
10572
10538
10522
10531
10557
10584
10603
10617
10636
10663
10686
10685
10653
10602
10559
10545
10560
10587
10603
10605
10603
10608
10622
10635
10639
10642
10658
10691
10726
10739
10725
10703
10708
10747
10794
10809
10776
10720
10683
10691
10730
10770
10791
10800
10809
10821
10826
10819
10810
10814
10830
10844
10844
10836
10835
10852
10877
10897
10906
10909
10910
10903
10883
10854
10834
10838
10861
10889
10911
10926
10935
10929
10900
10851
10808
10792
10799
10803
10780
10739
10710
10714
10738
10751
10732
10689
10649
10634
10642
10661
10675
10674
10652
10612
10571
10553
10567
10597
10612
10595
10562
10541
10545
10564
10576
10580
10586
10600
10607
10585
10538
10497
10493
10527
10565
10576
10563
10552
10562
10583
10586
10559
10516
10487
10490
10517
10552
10579
10592
10586
10562
10533
10520
10538
10580
10615
10621
10600
10581
10584
10602
10609
10585
10543
10513
10513
10536
10557
10560
10552
10550
10562
10577
10578
10562
10544
10543
10564
10593
10610
10601
10573
10540
10518
10513
10522
10537
10551
10561
10567
10569
10570
10570
10563
10550
10535
10526
10532
10550
10568
10576
10571
10562
10555
10555
10561
10566
10566
10558
10540
10518
10502
10504
10524
10555
10580
10590
10582
10564
10544
10531
10529
10540
10555
10559
10542
10510
10482
10478
10496
10517
10525
10521
10519
10533
10554
10565
10558
10542
10529
10527
10529
10530
10530
10534
10539
10539
10531
10524
10527
10539
10544
10529
10503
10489
10501
10531
10557
10564
10558
10553
10556
10560
10555
10545
10537
10539
10544
10544
10534
10519
10506
10500
10504
10524
10557
10586
10594
10574
10544
10529
10537
10550
10541
10506
10470
10465
10495
10534
10547
10529
10502
10495
10519
10558
10589
10599
10588
10565
10541
10523
10517
10515
10509
10493
10477
10478
10507
10551
10586
10592
10569
10538
10524
10538
10575
10621
10656
10664
10640
10597
10561
10551
10566
10584
10588
10579
10573
10577
10579
10564
10537
10522
10539
10578
10601
10580
10525
10474
10460
10483
10513
10524
10518
10509
10507
10507
10499
10487
10484
10499
10525
10547
10555
10551
10540
10523
10504
10487
10483
10493
10506
10509
10500
10490
10493
10510
10530
10545
10553
10555
10544
10512
10464
10425
10426
10476
10558
10643
10719
10794
10881
10976
11065
11146
11232
11336
11450
11541
11573
11528
11416
11255
11068
10876
10706
10572
10470
10379
10288
10215
10193
10236
10318
10392
10429
10438
10446
10467
10491
10503
10505
10510
10524
10536
10535
10525
10525
10541
10562
10566
10547
10520
10502
10494
10483
10467
10459
10476
10513
10542
10538
10510
10486
10491
10523
10558
10577
10581
10578
10575
10567
10551
10530
10510
10499
10501
10517
10545
10573
10585
10577
10560
10555
10570
10590
10595
10582
10566
10564
10573
10576
10565
10555
10571
10615
10660
10674
10654
10622
10607
10611
10620
10620
10615
10615
10618
10615
10601
10594
10610
10651
10695
10716
10712
10702
10707
10728
10751
10763
10764
10759
10752
10745
10739
10745
10766
10793
10812
10816
10810
10805
10807
10811
10818
10831
10855
10882
10896
10885
10861
10848
10863
10894
10912
10901
10871
10849
10850
10868
10881
10874
10850
10822
10800
10784
10770
10760
10755
10754
10750
10735
10708
10679
10655
10640
10628
10617
10604
10595
10588
10580
10567
10552
10541
10539
10548
10561
10574
10581
10577
10557
10524
10489
10467
10470
10493
10522
10542
10550
10548
10538
10520
10500
10489
10500
10528
10552
10553
10534
10515
10514
10529
10538
10526
10503
10489
10497
10517
10530
10525
10515
10515
10529
10545
10549
10536
10516
10504
10508
10528
10555
10573
10570
10547
10519
10510
10526
10551
10564
10558
10549
10553
10568
10574
10555
10520
10496
10500
10522
10539
10538
10530
10531
10542
10546
10533
10508
10493
10498
10515
10522
10511
10488
10473
10479
10504
10534
10554
10552
10533
10513
10506
10517
10531
10531
10514
10493
10487
10501
10525
10541
10546
10543
10533
10515
10489
10467
10461
10469
10473
10461
10444
10445
10479
10527
10557
10554
10532
10518
10517
10514
10495
10471
10465
10489
10523
10540
10528
10505
10494
10500
10506
10499
10482
10468
10466
10471
10473
10470
10468
10472
10481
10491
10501
10509
10513
10509
10499
10491
10490
10496
10504
10511
10517
10519
10505
10472
10435
10426
10463
10526
10567
10555
10502
10455
10447
10467
10478
10461
10434
10430
10459
10495
10507
10492
10471
10468
10479
10490
10490
10489
10497
10513
10524
10519
10504
10492
10489
10488
10480
10468
10464
10479
10511
10546
10565
10561
10534
10498
10467
10452
10451
10458
10465
10474
10487
10504
10511
10501
10480
10470
10486
10524
10561
10576
10566
10547
10536
10535
10536
10539
10548
10568
10589
10593
10571
10529
10491
10474
10479
10494
10503
10497
10479
10462
10461
10481
10511
10529
10517
10474
10422
10387
10382
10402
10433
10459
10472
10469
10453
10437
10435
10457
10496
10533
10548
10535
10504
10470
10446
10435
10438
10450
10462
10463
10449
10425
10407
10408
10430
10466
10511
10564
10627
10699
10777
10857
10945
11044
11153
11262
11357
11429
11469
11473
11432
11340
11197
11012
10806
10603
10433
10316
10256
10239
10244
10258
10285
10333
10392
10438
10451
10436
10420
10424
10449
10470
10468
10447
10429
10432
10451
10467
10471
10468
10470
10477
10479
10466
10445
10430
10431
10445
10461
10474
10483
10489
10487
10475
10460
10457
10476
10512
10544
10557
10547
10525
10506
10494
10489
10488
10492
10498
10504
10505
10499
10492
10489
10493
10504
10519
10533
10540
10534
10516
10499
10495
10510
10529
10536
10526
10514
10524
10560
10604
10629
10621
10596
10575
10569
10573
10575
10572
10574
10589
10613
10634
10646
10647
10644
10643
10646
10656
10674
10694
10706
10704
10697
10702
10729
10770
10803
10808
10789
10761
10739
10726
10719
10718
10731
10758
10789
10811
10817
10815
10815
10818
10824
10832
10846
10869
10888
10884
10847
10792
10751
10745
10767
10789
10791
10771
10744
10722
10704
10683
10659
10643
10641
10647
10642
10617
10584
10561
10562
10579
10590
10581
10556
10529
10511
10502
10494
10485
10479
10477
10476
10471
10464
10464
10480
10504
10519
10513
10497
10486
10490
10495
10485
10457
10433
10436
10467
10501
10510
10488
10458
10444
10456
10482
10506
10520
10525
10519
10505
10488
10477
10478
10485
10484
10470
10456
10456
10473
10495
10505
10502
10496
10493
10490
10479
10468
10472
10500
10538
10555
10535
10492
10453
10442
10459
10487
10512
10527
10530
10523
10510
10496
10483
10470
10455
10447
10461
10504
10556
10579
10551
10488
10434
10421
10444
10471
10474
10458
10448
10457
10472
10475
10464
10456
10467
10491
10508
10501
10475
10450
10444
10461
10487
10504
10501
10475
10441
10421
10430
10463
10494
10500
10476
10439
10415
10412
10419
10424
10425
10430
10445
10463
10472
10470
10461
10453
10448
10442
10436
10432
10435
10441
10442
10437
10429
10424
10425
10434
10451
10471
10486
10485
10465
10437
10420
10424
10442
10456
10455
10448
10451
10469
10491
10500
10492
10476
10466
10466
10472
10480
10486
10488
10478
10453
10421
10396
10392
10407
10427
10443
10452
10459
10466
10464
10450
10430
10421
10433
10457
10474
10468
10442
10414
10404
10419
10451
10482
10499
10497
10481
10464
10459
10467
10481
10490
10488
10479
10474
10478
10484
10484
10472
10458
10455
10468
10489
10501
10491
10470
10458
10471
10507
10542
10555
10541
10515
10499
10500
10505
10497
10471
10441
10427
10436
10453
10462
10454
10442
10439
10447
10450
10437
10414
10400
10408
10431
10447
10441
10423
10417
10434
10458
10463
10445
10422
10423
10451
10480
10482
10454
10424
10419
10439
10461
10462
10444
10423
10409
10397
10380
10368
10379
10419
10469
10502
10514
10528
10577
10666
10774
10876
10968
11062
11166
11264
11332
11360
11356
11329
11270
11163
11004
10817
10637
10484
10355
10247
10170
10143
10166
10217
10260
10284
10302
10333
10379
10422
10447
10456
10459
10459
10449
10430
10417
10433
10478
10522
10533
10500
10447
10409
10402
10421
10448
10476
10503
10522
10520
10492
10451
10422
10419
10432
10440
10432
10418
10413
10423
10436
10440
10436
10434
10439
10449
10460
10474
10495
10524
10548
10553
10537
10511
10489
10473
10459
10446
10446
10465
10495
10514
10505
10477
10458
10471
10515
10564
10589
10582
10555
10531
10523
10528
10539
10549
10556
10563
10572
10584
10598
10611
10618
10617
10611
10608
10615
10630
10645
10651
10646
10640
10644
10667
10703
10733
10741
10724
10699
10690
10711
10751
10788
10800
10787
10762
10743
10740
10751
10770
10788
10799
10797
10785
10771
10762
10760
10759
10758
10762
10778
10802
10815
10797
10750
10696
10663
10660
10671
10672
10652
10619
10590
10573
10566
10563
10560
10556
10548
10537
10527
10521
10516
10509
10497
10489
10491
10501
10506
10492
10463
10439
10435
10446
10456
10455
10449
10449
10458
10463
10457
10446
10448
10464
10476
10464
10429
10398
10396
10423
10455
10470
10465
10454
10449
10449
10449
10450
10458
10472
10482
10475
10453
10429
10418
10426
10451
10485
10519
10542
10542
10517
10481
10455
10449
10454
10455
10444
10432
10431
10444
10462
10477
10488
10497
10499
10493
10480
10474
10481
10492
10488
10461
10429
10420
10442
10477
10495
10484
10461
10449
10456
10469
10470
10458
10442
10434
10436
10443
10452
10461
10471
10475
10468
10452
10435
10427
10435
10456
10480
10492
10479
10444
10406
10389
10401
10429
10448
10447
10435
10429
10435
10444
10443
10434
10429
10434
10440
10436
10421
10410
10413
10430
10445
10449
10445
10442
10443
10445
10445
10448
10455
10462
10458
10445
10434
10440
10459
10470
10458
10429
10405
10404
10418
10429
10425
10417
10423
10448
10481
10502
10503
10483
10451
10413
10378
10358
10362
10387
10415
10429
10424
10412
10405
10406
10410
10414
10419
10429
10445
10457
10456
10444
10430
10424
10431
10442
10446
10438
10423
10409
10401
10398
10397
10399
10411
10434
10458
10463
10440
10403
10380
10391
10426
10456
10456
10428
10395
10381
10391
10414
10436
10455
10474
10491
10506
10515
10524
10536
10547
10548
10530
10497
10462
10439
10435
10444
10456
10464
10463
10453
10436
10418
10399
10382
10369
10369
10383
10404
10415
10407
10385
10373
10387
10420
10447
10447
10423
10394
10378
10377
10385
10400
10422
10447
10458
10443
10406
10375
10371
10394
10418
10423
10408
10389
10378
10373
10369
10368
10383
10425
10486
10552
10615
10679
10749
10823
10898
10973
11058
11158
11263
11349
11392
11376
11298
11161
10982
10791
10620
10489
10392
10305
10220
10153
10132
10168
10234
10292
10320
10323
10324
10337
10358
10378
10394
10412
10430
10438
10429
10406
10387
10386
10406
10432
10448
10446
10433
10423
10425
10437
10451
10455
10444
10420
10394
10372
10360
10364
10387
10427
10471
10498
10492
10460
10424
10408
10414
10428
10435
10434
10435
10444
10454
10454
10445
10438
10444
10462
10478
10484
10482
10478
10473
10465
10456
10457
10478
10515
10547
10557
10545
10523
10504
10492
10486
10486
10496
10513
10523
10515
10500
10499
10529
10577
10610
10605
10574
10548
10549
10571
10591
10594
10589
10594
10613
10634
10646
10650
10660
10680
10702
10713
10709
10703
10707
10720
10734
10743
10751
10764
10777
10778
10762
10744
10744
10771
10806
10820
10802
10765
10737
10729
10733
10731
10720
10711
10718
10735
10742
10723
10680
10634
10605
10598
10603
10603
10589
10562
10527
10496
10478
10478
10498
10525
10543
10537
10501
10447
10396
10372
10385
10424
10466
10487
10477
10448
10421
10412
10414
10415
10403
10388
10387
10409
10441
10458
10448
10421
10400
10401
10416
10426
10417
10396
10384
10391
10410
10425
10429
10428
10433
10445
10454
10452
10443
10440
10448
10455
10444
10412
10377
10367
10392
10436
10471
10479
10462
10433
10403
10378
10364
10371
10400
10434
10450
10433
10395
10366
10370
10407
10455
10491
10508
10508
10495
10467
10427
10388
10369
10378
10409
10441
10462
10465
10452
10427
10397
10376
10377
10403
10440
10464
10461
10437
10410
10396
10395
10394
10385
10371
10363
10370
10391
10417
10440
10453
10455
10445
10421
10385
10351
10334
10349
10391
10434
10448
10423
10376
10344
10353
10397
10445
10470
10468
10454
10445
10440
10426
10399
10371
10365
10389
10427
10453
10445
10411
10374
10359
10375
10408
10436
10440
10416
10379
10347
10337
10350
10379
10410
10431
10433
10418
10393
10371
10362
10368
10381
10393
10395
10386
10372
10361
10364
10385
10420
10451
10460
10441
10408
10382
10375
10376
10374
10367
10367
10385
10408
10413
10392
10365
10363
10395
10434
10443
10411
10366
10350
10372
10410
10430
10421
10400
10390
10394
10398
10390
10374
10361
10362
10376
10393
10407
10410
10403
10392
10389
10401
10425
10440
10431
10400
10370
10363
10382
10413
10439
10457
10476
10497
10513
10510
10491
10469
10459
10460
10460
10448
10425
10404
10400
10415
10441
10465
10472
10456
10424
10388
10360
10344
10335
10334
10343
10367
10401
10426
10428
10408
10381
10363
10359
10361
10362
10365
10370
10373
10363
10341
10321
10319
10340
10369
10385
10382
10369
10357
10355
10358
10363
10366
10359
10337
10306
10290
10313
10383
10478
10567
10640
10710
10797
10900
11004
11097
11188
11289
11389
11448
11426
11320
11160
10985
10811
10632
10448
10281
10164
10110
10109
10137
10183
10242
10301
10335
10329
10296
10271
10281
10317
10349
10358
10353
10356
10372
10382
10368
10337
10325
10352
10404
10443
10442
10408
10376
10368
10380
10392
10395
10395
10400
10405
10397
10373
10351
10353
10383
10421
10437
10424
10395
10375
10374
10387
10399
10403
10404
10409
10422
10440
10457
10465
10458
10438
10416
10409
10424
10453
10473
10468
10442
10413
10401
10408
10419
10423
10423
10428
10445
10466
10478
10475
10468
10467
10476
10487
10495
10501
10513
10532
10548
10554
10549
10544
10546
10552
10552
10550
10556
10581
10616
10638
10629
10604
10594
10618
10659
10678
10651
10595
10558
10574
10636
10705
10743
10745
10731
10724
10726
10726
10720
10718
10730
10751
10767
10764
10743
10719
10702
10691
10679
10667
10662
10665
10668
10660
10636
10610
10595
10594
10595
10583
10556
10528
10515
10516
10520
10512
10492
10467
10449
10438
10431
10423
10416
10415
10420
10422
10417
10402
10387
10380
10380
10384
10385
10386
10392
10404
10410
10401
10377
10351
10338
10342
10356
10369
10378
10380
10376
10360
10338
10330
10354
10408
10456
10458
10403
10327
10283
10298
10353
10406
10426
10419
10407
10402
10398
10383
10362
10349
10355
10374
10394
10405
10409
10409
10405
10396
10388
10388
10398
10407
10403
10387
10370
10364
10369
10374
10374
10373
10380
10394
10404
10402
10392
10389
10402
10424
10437
10428
10398
10359
10329
10319
10332
10356
10378
10387
10384
10377
10374
10375
10375
10374
10379
10389
10397
10392
10377
10366
10375
10396
10404
10384
10344
10312
10305
10314
10320
10318
10327
10363
10410
10435
10412
10357
10311
10305
10337
10381
10411
10420
10409
10382
10344
10311
10301
10321
10351
10365
10353
10331
10321
10329
10345
10356
10366
10385
10412
10429
10417
10373
10323
10292
10295
10323
10353
10365
10351
10320
10294
10299
10341
10397
10430
10415
10363
10310
10288
10300
10325
10340
10340
10332
10324
10318
10315
10321
10339
10362
10376
10371
10352
10333
10325
10330
10344
10361
10378
10391
10395
10387
10371
10352
10331
10312
10302
10311
10338
10369
10381
10368
10345
10334
10343
10354
10348
10323
10299
10294
10309
10327
10334
10334
10338
10351
10364
10370
10370
10369
10370
10369
10368
10375
10394
10420
10435
10430
10412
10399
10400
10409
10413
10405
10396
10394
10399
10404
10404
10405
10408
10407
10392
10362
10329
10309
10310
10325
10344
10361
10373
10375
10358
10322
10281
10259
10267
10299
10332
10349
10343
10324
10306
10302
10321
10356
10395
10416
10406
10366
10311
10264
10244
10258
10296
10339
10366
10366
10343
10312
10287
10278
10286
10312
10358
10420
10486
10549
10613
10688
10781
10881
10973
11052
11131
11219
11304
11353
11342
11277
11178
11055
10892
10676
10433
10223
10102
10074
10095
10113
10115
10119
10149
10199
10251
10292
10326
10355
10369
10361
10335
10312
10310
10322
10334
10340
10348
10366
10383
10379
10351
10321
10317
10342
10369
10374
10359
10349
10361
10387
10402
10400
10392
10389
10388
10375
10346
10321
10321
10347
10377
10390
10384
10375
10375
10382
10385
10383
10383
10389
10396
10395
10385
10379
10388
10406
10421
10424
10417
10411
10407
10404
10399
10398
10414
10447
10485
10505
10496
10466
10435
10422
10429
10440
10441
10430
10425
10444
10487
10531
10552
10547
10535
10543
10573
10603
10609
10590
10568
10570
10596
10626
10640
10636
10628
10625
10623
10616
10606
10606
10628
10665
10700
10716
10712
10701
10700
10711
10726
10731
10721
10707
10703
10719
10749
10771
10771
10749
10718
10693
10675
10659
10643
10631
10630
10633
10627
10602
10569
10550
10552
10560
10548
10508
10461
10435
10444
10469
10481
10465
10430
10402
10396
10411
10429
10436
10425
10403
10380
10369
10370
10380
10390
10395
10400
10408
10419
10427
10425
10411
10391
10375
10369
10373
10383
10387
10378
10360
10348
10360
10397
10442
10466
10455
10421
10387
10370
10370
10378
10395
10423
10454
10470
10454
10415
10381
10376
10402
10432
10446
10443
10440
10446
10454
10451
10433
10412
10401
10399
10397
10395
10400
10423
10460
10491
10500
10485
10454
10420
10393
10380
10386
10413
10450
10479
10485
10465
10433
10403
10389
10395
10416
10440
10450
10437
10409
10390
10396
10423
10451
10458
10445
10427
10420
10421
10422
10419
10419
10431
10450
10461
10449
10422
10399
10396
10414
10437
10451
10448
10435
10421
10415
10418
10429
10442
10453
10459
10460
10458
10454
10449
10446
10443
10438
10425
10404
10382
10373
10386
10415
10443
10458
10458
10449
10437
10429
10425
10431
10444
10457
10458
10445
10429
10426
10440
10457
10462
10451
10441
10451
10482
10511
10513
10483
10440
10417
10430
10473
10522
10547
10536
10491
10430
10376
10347
10350
10378
10416
10445
10452
10437
10416
10411
10436
10482
10524
10535
10513
10477
10455
10458
10479
10502
10515
10518
10513
10504
10490
10475
10466
10464
10464
10459
10446
10436
10440
10463
10498
10532
10551
10549
10531
10514
10511
10524
10539
10539
10525
10515
10531
10569
10599
10591
10549
10507
10504
10544
10595
10616
10596
10553
10513
10491
10482
10479
10482
10490
10500
10506
10504
10500
10498
10501
10508
10518
10534
10552
10560
10547
10517
10489
10483
10499
10521
10530
10523
10508
10493
10481
10475
10478
10498
10529
10554
10558
10540
10510
10483
10466
10462
10475
10503
10533
10548
10541
10528
10543
10607
10712
10833
10945
11045
11141
11234
11317
11385
11443
11489
11504
11456
11327
11139
10939
10765
10625
10508
10406
10331
10298
10307
10341
10384
10428
10470
10505
10523
10522
10510
10504
10510
10521
10534
10547
10562
10568
10554
10523
10501
10518
10574
10634
10654
10623
10573
10544
10551
10574
10583
10569
10545
10531
10537
10562
10600
10641
10667
10662
10624
10576
10547
10548
10565
10571
10560
10549
10563
10599
10635
10644
10626
10602
10594
10606
10629
10651
10670
10688
10702
10707
10696
10673
10650
10633
10626
10624
10624
10623
10625
10636
10664
10702
10735
10745
10728
10699
10680
10681
10696
10711
10721
10732
10749
10765
10773
10768
10759
10757
10764
10776
10791
10814
10846
10878
10893
10884
10866
10864
10888
10925
10953
10960
10954
10946
10938
10929
10920
10922
10936
10950
10945
10922
10902
10910
10947
10985
10998
10981
10958
10949
10956
10962
10957
10941
10921
10895
10855
10802
10757
10741
10758
10793
10825
10842
10842
10823
10779
10716
10660
10639
10660
10698
10716
10695
10652
10620
10617
10640
10666
10678
10673
10658
10641
10629
10625
10629
10636
10638
10631
10617
10602
10589
10585
10594
10619
10652
10673
10667
10638
10605
10583
10577
10577
10580
10594
10625
10662
10681
10671
10650
10647
10671
10699
10703
10677
10647
10640
10654
10665
10660
10655
10674
10713
10740
10724
10669
10614
10595
10613
10643
10664
10678
10697
10721
10729
10707
10661
10616
10598
10609
10639
10671
10691
10691
10672
10643
10622
10623
10644
10669
10682
10682
10678
10678
10679
10680
10679
10680
10679
10666
10636
10601
10584
10602
10649
10700
10729
10723
10686
10634
10591
10577
10597
10638
10674
10686
10678
10666
10660
10654
10641
10628
10633
10661
10690
10693
10662
10624
10613
10634
10660
10661
10635
10610
10608
10627
10648
10660
10667
10679
10689
10684
10662
10641
10638
10650
10659
10650
10633
10626
10636
10653
10661
10655
10646
10643
10646
10648
10645
10638
10628
10616
10612
10627
10663
10701
10707
10668
10608
10573
10587
10632
10668
10669
10648
10633
10639
10653
10660
10658
10654
10651
10642
10626
10620
10639
10678
10708
10701
10664
10628
10622
10643
10661
10654
10633
10621
10632
10650
10655
10642
10627
10626
10640
10657
10664
10662
10659
10661
10667
10674
10681
10685
10683
10675
10664
10658
10664
10682
10704
10721
10730
10734
10738
10743
10744
10731
10700
10659
10627
10620
10637
10660
10665
10646
10618
10598
10594
10595
10593
10589
10596
10613
10629
10629
10613
10599
10604
10626
10649
10656
10646
10628
10612
10599
10588
10584
10596
10625
10655
10666
10648
10609
10572
10556
10564
10588
10609
10615
10610
10611
10638
10697
10776
10860
10942
11029
11125
11224
11307
11371
11428
11493
11561
11601
11582
11496
11358
11189
11001
10803
10620
10489
10433
10438
10459
10460
10443
10436
10462
10515
10567
10596
10601
10595
10587
10583
10588
10609
10640
10659
10650
10614
10579
10571
10591
10614
10619
10605
10594
10602
10623
10640
10641
10635
10637
10648
10659
10657
10642
10624
10611
10605
10603
10606
10618
10638
10656
10662
10657
10649
10649
10656
10662
10660
10655
10657
10673
10692
10697
10683
10659
10646
10654
10672
10680
10670
10652
10645
10660
10688
10715
10732
10740
10737
10720
10686
10654
10649
10684
10741
10781
10783
10763
10754
10771
10794
10794
10765
10734
10731
10753
10776
10780
10781
10800
10841
10876
10882
10866
10860
10881
10912
10920
10902
10888
10910
10959
10992
10977
10929
10893
10898
10934
10967
10979
10979
10982
10988
10985
10969
10955
10957
10966
10958
10923
10883
10869
10891
10924
10935
10915
10877
10844
10818
10794
10768
10749
10742
10742
10733
10712
10690
10686
10699
10714
10714
10698
10679
10668
10663
10653
10632
10606
10585
10580
10589
10607
10622
10622
10604
10576
10554
10550
10560
10569
10569
10566
10574
10595
10616
10624
10614
10603
10602
10612
10616
10603
10582
10570
10579
10604
10628
10635
10617
10579
10537
10511
10516
10550
10588
10607
10599
10582
10579
10593
10606
10599
10580
10572
10592
10627
10648
10643
10625
10616
10619
10619
10603
10583
10581
10604
10632
10635
10611
10584
10577
10589
10595
10581
10561
10561
10588
10622
10629
10600
10555
10523
10521
10542
10570
10593
10600
10591
10570
10548
10542
10553
10571
10577
10566
10552
10550
10565
10583
10593
10592
10585
10577
10567
10553
10542
10539
10544
10546
10534
10513
10499
10509
10539
10569
10582
10569
10539
10505
10484
10485
10508
10541
10562
10560
10542
10526
10527
10537
10540
10529
10513
10511
10528
10550
10558
10544
10521
10503
10495
10495
10500
10510
10523
10533
10534
10528
10524
10529
10537
10539
10529
10517
10510
10512
10515
10517
10522
10532
10542
10538
10516
10488
10476
10490
10519
10540
10536
10513
10489
10479
10488
10508
10531
10546
10543
10522
10491
10466
10458
10468
10488
10514
10541
10567
10580
10573
10548
10521
10507
10510
10516
10513
10502
10492
10494
10502
10508
10509
10514
10528
10547
10556
10547
10528
10517
10525
10549
10572
10582
10575
10561
10552
10556
10571
10586
10591
10577
10551
10524
10509
10508
10514
10518
10514
10501
10483
10464
10452
10454
10471
10492
10502
10496
10485
10484
10493
10500
10487
10454
10419
10404
10412
10429
10435
10431
10429
10441
10465
10485
10489
10475
10455
10443
10441
10448
10456
10464
10467
10464
10458
10455
10464
10489
10529
10577
10634
10699
10777
10865
10958
11051
11147
11248
11350
11434
11474
11453
11368
11236
11078
10916
10764
10630
10516
10415
10324
10244
10190
10178
10207
10260
10311
10349
10380
10414
10448
10465
10453
10422
10402
10410
10441
10466
10470
10457
10449
10460
10479
10489
10483
10468
10459
10459
10460
10456
10445
10433
10425
10426
10437
10456
10473
10472
10445
10407
10385
10398
10439
10479
10492
10475
10451
10442
10455
10481
10506
10519
10518
10502
10474
10450
10446
10470
10511
10548
10561
10550
10524
10500
10487
10488
10495
10500
10492
10473
10452
10444
10457
10483
10511
10533
10548
10556
10556
10545
10534
10536
10559
10591
10612
10610
10597
10596
10614
10641
10657
10654
10645
10641
10644
10646
10646
10655
10683
10723
10755
10763
10750
10738
10741
10754
10762
10758
10751
10751
10761
10769
10764
10749
10739
10745
10765
10788
10798
10789
10765
10737
10717
10711
10719
10733
10740
10734
10715
10690
10667
10650
10637
10619
10595
10570
10551
10545
10545
10541
10527
10506
10488
10476
10466
10449
10429
10417
10422
10440
10454
10450
10431
10413
10407
10409
10408
10401
10395
10395
10399
10398
10390
10381
10378
10381
10386
10391
10407
10438
10474
10490
10471
10428
10387
10370
10375
10387
10393
10396
10400
10409
10416
10418
10421
10429
10438
10439
10422
10391
10358
10337
10337
10359
10394
10420
10419
10393
10370
10384
10444
10512
10538
10502
10432
10384
10384
10415
10438
10433
10416
10408
10410
10406
10388
10368
10367
10386
10403
10398
10380
10373
10389
10411
10412
10387
10358
10353
10374
10403
10416
10413
10406
10404
10403
10392
10373
10360
10365
10385
10405
10412
10403
10387
10376
10374
10381
10390
10396
10392
10378
10357
10334
10316
10308
10314
10334
10361
10381
10387
10380
10368
10362
10359
10355
10345
10337
10341
10357
10373
10373
10359
10342
10335
10337
10338
10333
10328
10334
10354
10376
10384
10375
10357
10345
10347
10359
10370
10375
10373
10363
10347
10327
10310
10305
10318
10346
10376
10394
10393
10375
10352
10335
10328
10330
10334
10335
10332
10324
10315
10312
10323
10351
10384
10404
10395
10360
10321
10301
10308
10330
10348
10355
10352
10347
10340
10328
10314
10312
10330
10367
10399
10406
10383
10348
10324
10321
10332
10342
10345
10344
10343
10338
10324
10300
10278
10275
10298
10334
10362
10365
10346
10323
10313
10324
10350
10376
10391
10386
10366
10340
10326
10335
10365
10402
10429
10438
10437
10434
10429
10411
10376
10336
10310
10309
10323
10330
10319
10298
10288
10300
10326
10343
10337
10308
10271
10248
10249
10274
10310
10336
10334
10305
10266
10243
10251
10281
10307
10309
10284
10249
10226
10229
10253
10287
10317
10339
10352
10355
10348
10326
10289
10250
10231
10248
10298
10361
10414
10450
10483
10532
10605
10697
10796
10897
11000
11104
11199
11269
11297
11274
11194
11062
10892
10707
10531
10380
10257
10161
10092
10056
10056
10086
10131
10172
10200
10214
10222
10233
10255
10283
10307
10316
10309
10297
10295
10304
10314
10312
10301
10290
10290
10298
10307
10315
10330
10351
10366
10355
10317
10274
10257
10273
10302
10321
10327
10334
10350
10360
10341
10292
10240
10220
10243
10290
10331
10355
10369
10381
10391
10389
10377
10361
10346
10327
10300
10274
10267
10292
10338
10382
10404
10406
10398
10383
10354
10312
10279
10281
10330
10403
10457
10463
10425
10379
10359
10378
10421
10464
10485
10477
10450
10424
10418
10436
10468
10489
10485
10459
10433
10429
10454
10493
10526
10542
10547
10551
10561
10572
10578
10581
10590
10609
10631
10644
10642
10632
10629
10635
10640
10630
10614
10611
10634
10669
10684
10660
10609
10568
10565
10591
10615
10612
10583
10551
10530
10522
10515
10506
10498
10491
10478
10451
10416
10394
10401
10433
10464
10468
10447
10421
10412
10416
10409
10374
10320
10281
10282
10320
10358
10361
10324
10272
10242
10244
10264
10275
10269
10254
10246
10251
10266
10286
10309
10330
10338
10320
10279
10236
10215
10226
10255
10283
10300
10313
10327
10338
10338
10328
10318
10318
10321
10313
10288
10258
10243
10252
10278
10303
10319
10325
10326
10322
10314
10305
10305
10316
10327
10325
10307
10283
10268
10271
10289
10308
10319
10315
10299
10280
10269
10274
10295
10322
10343
10351
10346
10329
10302
10271
10248
10246
10263
10284
10294
10291
10284
10288
10303
10315
10316
10310
10308
10316
10330
10340
10340
10333
10317
10291
10260
10237
10237
10258
10283
10292
10284
10275
10281
10295
10299
10283
10257
10242
10249
10265
10272
10266
10255
10253
10262
10270
10268
10258
10250
10253
10267
10287
10306
10315
10310
10292
10269
10253
10250
10260
10275
10289
10293
10283
10261
10235
10224
10239
10277
10317
10332
10316
10281
10251
10239
10245
10258
10271
10278
10275
10260
10239
10225
10229
10251
10275
10287
10281
10264
10248
10240
10241
10252
10268
10282
10282
10261
10222
10187
10177
10200
10246
10292
10320
10323
10307
10285
10267
10257
10253
10256
10263
10275
10287
10290
10277
10252
10229
10225
10242
10270
10290
10296
10293
10292
10298
10308
10312
10306
10293
10281
10276
10277
10280
10277
10265
10250
10241
10245
10259
10271
10278
10286
10309
10345
10376
10384
10361
10325
10294
10279
10273
10271
10276
10294
10315
10318
10286
10233
10194
10197
10232
10267
10273
10252
10228
10224
10241
10264
10279
10285
10285
10277
10257
10226
10195
10179
10188
10214
10243
10259
10256
10239
10222
10220
10237
10263
10279
10270
10238
10203
10184
10188
10207
10226
10239
10249
10271
10314
10381
10470
10570
10675
10780
10880
10974
11056
11123
11174
11203
11196
11137
11016
10842
10642
10449
10288
10168
10093
10059
10056
10068
10078
10081
10090
10117
10159
10198
10214
10207
10195
10196
10212
10231
10247
10265
10291
10316
10324
10308
10278
10255
10246
10244
10239
10233
10241
10264
10285
10285
10261
10232
10215
10214
10215
10207
10197
10198
10218
10248
10272
10280
10273
10258
10251
10266
10304
10350
10371
10344
10280
10220
10205
10241
10300
10347
10368
10369
10356
10331
10295
10264
10258
10281
10315
10336
10334
10322
10317
10320
10323
10323
10329
10347
10368
10377
10366
10348
10338
10343
10351
10356
10362
10380
10410
10439
10457
10465
10471
10473
10460
10434
10414
10425
10466
10505
10515
10497
10481
10494
10526
10546
10542
10532
10545
10585
10624
10634
10615
10592
10584
10587
10582
10564
10551
10559
10583
10603
10601
10585
10571
10566
10561
10542
10505
10463
10436
10433
10448
10468
10476
10465
10438
10408
10387
10380
10379
10375
10365
10351
10336
10317
10296
10281
10281
10296
10314
10319
10309
10293
10279
10268
10253
10236
10224
10228
10240
10244
10229
10201
10179
10174
10186
10206
10226
10240
10245
10240
10236
10250
10289
10334
10351
10317
10247
10180
10152
10167
10202
10234
10255
10267
10269
10259
10238
10217
10210
10218
10232
10243
10248
10248
10243
10229
10210
10199
10205
10221
10232
10232
10229
10236
10254
10265
10259
10244
10241
10260
10288
10303
10296
10279
10270
10272
10276
10274
10266
10260
10259
10258
10254
10251
10248
10240
10224
10206
10201
10218
10243
10254
10240
10214
10197
10195
10196
10188
10180
10189
10224
10268
10298
10307
10304
10300
10290
10263
10221
10187
10183
10207
10238
10251
10246
10236
10232
10229
10216
10195
10180
10186
10212
10241
10255
10246
10220
10191
10175
10181
10209
10242
10261
10261
10252
10251
10264
10274
10263
10226
10183
10158
10164
10189
10210
10210
10189
10163
10151
10163
10191
10218
10227
10220
10213
10223
10245
10258
10242
10198
10154
10137
10153
10182
10201
10200
10189
10181
10183
10194
10211
10230
10244
10245
10232
10217
10216
10230
10250
10263
10267
10273
10281
10280
10255
10209
10167
10155
10178
10212
10231
10228
10220
10223
10240
10253
10252
10237
10222
10214
10208
10197
10183
10176
10184
10202
10217
10218
10209
10207
10220
10244
10262
10262
10246
10230
10228
10239
10255
10266
10273
10282
10294
10299
10286
10256
10224
10210
10216
10230
10234
10221
10204
10199
10214
10240
10263
10274
10275
10270
10262
10250
10235
10222
10216
10218
10219
10214
10203
10196
10200
10210
10215
10207
10191
10184
10194
10212
10220
10207
10183
10169
10181
10213
10249
10273
10280
10271
10245
10202
10155
10121
10116
10145
10202
10279
10374
10480
10579
10654
10704
10753
10831
10944
11063
11148
11179
11162
11112
11030
10905
10733
10532
10338
10182
10079
10025
10009
10019
10035
10041
10039
10051
10097
10174
10252
10295
10291
10257
10220
10196
10187
10190
10206
10233
10261
10277
10273
10253
10226
10201
10179
10170
10183
10221
10268
10298
10297
10271
10242
10226
10223
10224
10218
10206
10190
10178
10178
10201
10243
10286
10302
10281
10238
10204
10197
10211
10231
10254
10286
10324
10347
10335
10287
10238
10224
10255
10309
10356
10380
10382
10370
10346
10315
10291
10285
10297
10311
10312
10300
10292
10296
10310
10321
10325
10332
10350
10376
10396
10399
10391
10384
10388
10404
10424
