1186
1200
1208
1216
1224
1232
1248
1254
1262
1268
1274
1278
1282
1288
1288
1290
1290
1290
1284
1278
1272
1264
1258
1248
1240
1218
1206
1194
1180
1166
1136
1120
1106
1090
1076
1048
1034
1022
1010
998
988
980
968
964
960
960
960
966
972
978
988
998
1010
1022
1050
1066
1084
1090
1096
1140
1162
1184
1202
1220
1248
1260
1272
1280
1290
1296
1302
1308
1308
1308
1304
1300
1284
1274
1264
1250
1238
1222
1206
1210
1188
1166
1142
1120
1074
1050
1028
1010
992
976
962
936
926
916
908
900
890
886
882
880
880
880
880
882
882
884
886
888
890
890
890
888
888
884
882
880
876
872
866
862
852
844
838
830
824
808
798
790
780
770
750
738
726
712
698
684
668
636
636
634
614
594
550
528
504
480
456
432
408
360
338
314
292
270
228
216
204
190
176
152
144
134
126
118
114
110
104
104
104
106
106
114
120
124
132
138
146
154
172
182
190
200
210
232
244
254
264
274
294
304
314
324
332
342
350
364
372
380
388
394
406
412
418
424
428
434
440
450
456
460
466
470
480
486
490
494
498
502
506
512
516
518
520
522
526
526
526
526
526
524
524
522
520
518
516
514
512
510
508
508
506
504
504
504
506
506
508
510
514
516
518
522
524
532
536
538
542
546
552
558
562
566
570
576
582
586
596
604
600
596
638
620
600
646
690
640
590
778
916
1054
1220
1386
1672
1784
1898
2270
2644
2416
2298
2180
2066
1954
1514
1074
152
-159
-471
-687
-903
-1069
-1053
-1037
-961
-885
-785
-687
-489
-399
-311
-235
-159
-101
-49
0
30
60
136
166
196
182
166
180
194
210
216
220
222
222
216
214
210
204
198
192
186
172
166
158
152
144
132
128
124
122
118
118
116
116
118
120
124
126
136
144
150
160
168
190
202
214
230
244
238
230
268
290
310
336
360
414
440
466
506
544
580
616
642
666
690
700
710
738
748
758
764
772
782
784
788
788
790
788
788
786
784
782
780
778
774
772
772
770
770
768
766
762
758
754
750
738
730
722
712
702
680
666
652
638
622
608
592
560
546
532
518
504
482
472
462
454
446
440
432
420
414
408
402
396
382
374
364
352
338
308
292
276
284
290
266
242
188
150
112
78
44
26
2
-21
-43
-65
-83
-103
-137
-153
-169
-183
-199
-229
-245
-261
-279
-297
-315
-335
-377
-399
-421
-443
-465
-507
-521
-537
-551
-565
-587
-595
-605
-611
-619
-623
-627
-633
-633
-633
-633
-633
-631
-629
-629
-629
-629
-629
-631
-635
-637
-641
-645
-651
-665
-673
-683
-693
-705
-727
-739
-753
-767
-783
-797
-811
-841
-855
-871
-885
-901
-929
-941
-953
-963
-975
-983
-993
-1007
-1011
-1015
-1015
-1015
-1011
-1005
-999
-989
-979
-955
-939
-923
-929
-937
-913
-889
-839
-811
-785
-757
-731
-679
-653
-629
-605
-583
-561
-539
-501
-483
-467
-449
-433
-403
-381
-361
-345
-331
-299
-283
-269
-253
-239
-223
-207
-175
-171
-167
-137
-109
-103
-83
-65
-45
-25
-1
20
70
74
76
112
146
228
272
316
362
406
452
496
584
626
666
706
746
820
858
896
936
976
1060
1108
1156
1198
1240
1300
1362
1484
1544
1606
1642
1680
1768
1806
1846
1878
1910
1938
1966
2012
2024
2036
2058
2082
2126
2144
2162
2176
2190
2212
2220
2230
2236
2244
2246
2250
2250
2246
2244
2238
2234
2220
2212
2204
2194
2186
2178
2170
2154
2148
2142
2138
2134
2130
2130
2130
2132
2136
2142
2146
2152
2158
2164
2168
2172
2180
2180
2182
2180
2180
2170
2162
2156
2144
2134
2118
2104
2122
2100
2078
2052
2026
1980
1946
1914
1880
1848
1782
1748
1714
1680
1648
1622
1596
1552
1524
1496
1488
1482
1458
1450
1444
1440
1436
1436
1438
1454
1462
1472
1456
1440
1490
1486
1482
1530
1578
1644
1710
1650
1760
1872
2026
2180
2538
2718
2898
3212
3526
3894
3936
3980
3854
3730
3450
3172
2428
1998
1568
1226
886
640
612
584
658
730
798
866
880
888
898
920
942
994
1006
1018
1028
1040
1060
1068
1078
1084
1092
1096
1102
1106
1108
1110
1110
1112
1114
1114
1114
1116
1118
1122
1126
1136
1142
1150
1160
1170
1192
1206
1222
1236
1252
1256
1278
1302
1326
1350
1370
1392
1424
1438
1452
1462
1474
1492
1498
1506
1510
1516
1518
1522
1526
1528
1530
1530
1532
1538
1540
1544
1548
1554
1568
1576
1584
1594
1604
1616
1628
1654
1668
1682
1696
1712
1722
1750
1778
1782
1786
1804
1822
1862
1884
1908
1932
1958
1970
2008
2048
2090
2132
2174
2216
2294
2280
2268
2282
2298
2320
2324
2330
2326
2324
2306
2328
2352
2330
2310
2312
2316
2236
2190
2146
2110
2076
1952
1886
1820
1754
1690
1660
1632
1554
1522
1490
1496
1504
1460
1446
1434
1422
1410
1392
1386
1380
1374
1370
1366
1364
1362
1364
1366
1370
1376
1392
1400
1410
1422
1434
1448
1462
1494
1510
1526
1534
1542
1594
1610
1626
1640
1656
1680
1688
1698
1702
1708
1710
1712
1710
1704
1700
1692
1684
1662
1648
1634
1618
1604
1588
1574
1540
1524
1508
1492
1478
1450
1436
1424
1412
1400
1380
1370
1362
1354
1346
1338
1330
1316
1308
1302
1294
1286
1268
1258
1248
1236
1224
1212
1200
1170
1174
1180
1160
1140
1094
1066
1040
1032
1026
984
944
856
810
766
722
678
594
554
514
472
430
334
346
358
310
260
178
96
-137
-287
-439
-569
-701
-1139
-1367
-1597
-1819
-2043
-2239
-2435
-2741
-2851
-2961
-3039
-3119
-3253
-3323
-3393
-3453
-3515
-3531
-3565
-3601
-3565
-3529
-3537
-3545
-3547
-3535
-3525
-3543
-3561
-3601
-3563
-3527
-3479
-3433
-3419
-3405
-3245
-3155
-3067
-2975
-2885
-2715
-2641
-2567
-2507
-2447
-2317
-2319
-2321
-2283
-2247
-2219
-2191
-2191
-2173
-2155
-2133
-2113
-2095
-2071
-2049
-2033
-2017
-2013
-2009
-1979
-1961
-1943
-1925
-1907
-1867
-1847
-1827
-1807
-1787
-1747
-1727
-1709
-1693
-1677
-1661
-1647
-1619
-1605
-1591
-1577
-1563
-1535
-1519
-1505
-1491
-1477
-1459
-1443
-1449
-1429
-1409
-1387
-1365
-1315
-1303
-1291
-1257
-1223
-1185
-1149
-1071
-1033
-995
-957
-921
-901
-877
-853
-831
-811
-773
-757
-741
-725
-711
-695
-681
-651
-637
-623
-609
-597
-569
-555
-543
-529
-515
-501
-487
-459
-445
-431
-415
-401
-371
-355
-339
-335
-333
-303
-287
-271
-253
-235
-213
-193
-147
-121
-97
-81
-65
4
42
78
114
150
186
222
292
324
354
384
412
462
480
498
522
544
594
612
630
662
692
734
774
722
778
836
930
1026
1290
1454
1618
1806
1996
2170
2346
2832
3000
3170
3272
3376
3356
3074
2794
2632
2470
1728
1324
922
670
418
264
110
78
158
238
364
488
734
794
854
918
984
1008
1034
1122
1158
1194
1232
1272
1342
1374
1408
1414
1420
1428
1438
1466
1476
1486
1492
1498
1502
1504
1506
1504
1504
1498
1494
1490
1486
1482
1478
1474
1466
1462
1458
1456
1456
1454
1456
1458
1460
1464
1468
1474
1488
1496
1506
1518
1530
1556
1570
1584
1584
1584
1620
1640
1660
1680
1702
1724
1748
1796
1822
1850
1866
1884
1938
1968
2000
2034
2070
2106
2144
2222
2260
2298
2312
2326
2374
2376
2378
2390
2402
2416
2420
2424
2426
2428
2426
2424
2418
2412
2408
2400
2394
2380
2372
2364
2356
2348
2338
2330
2310
2300
2290
2278
2266
2238
2222
2208
2216
2224
2184
2162
2140
2114
2090
2064
2038
1984
1960
1936
1912
1890
1874
1860
1848
1836
1824
1814
1804
1784
1776
1768
1758
1750
1732
1720
1710
1696
1682
1666
1652
1672
1650
1630
1606
1582
1528
1496
1466
1432
1400
1364
1338
1312
1288
1264
1242
1220
1192
1178
1164
1152
1140
1122
1114
1108
1104
1100
1098
1098
1102
1106
1110
1116
1124
1140
1150
1162
1174
1186
1210
1222
1234
1246
1258
1268
1278
1294
1300
1306
1308
1312
1312
1308
1304
1298
1292
1282
1272
1246
1230
1216
1216
1218
1174
1152
1130
1106
1084
1038
1016
994
972
950
928
908
868
848
828
808
790
756
736
714
698
682
668
654
630
620
608
600
592
580
578
574
574
574
578
582
586
594
600
608
616
632
642
652
662
670
686
692
698
704
708
710
712
710
706
702
696
688
668
656
644
630
616
600
582
576
556
534
512
488
444
424
402
382
360
322
306
288
272
256
238
220
190
176
160
146
130
102
90
76
64
50
38
26
4
-3
-13
-19
-27
-39
-41
-45
-45
-47
-45
-43
-41
-35
-31
-25
-21
-9
-3
2
8
14
24
28
30
32
34
36
36
32
30
26
22
18
6
0
-5
-11
-19
-33
-39
-45
-51
-59
-63
-69
-77
-79
-83
-83
-85
-85
-83
-83
-79
-77
-73
-69
-57
-49
-43
-35
-27
-9
0
10
20
30
50
60
70
80
88
96
104
118
122
126
128
130
128
126
122
116
110
102
92
68
56
42
28
12
-19
-35
-53
-67
-83
-97
-111
-141
-151
-161
-171
-181
-185
-177
-171
-187
-205
-267
-229
-191
-211
-231
-155
-81
122
254
384
540
696
956
1180
1404
1624
1844
2028
2212
2424
2424
2426
2302
2178
1716
1418
1120
824
530
88
-5
-101
-51
-1
160
320
740
842
944
1022
1102
882
910
940
948
958
968
980
990
988
988
996
1006
1018
1024
1030
1036
1042
1054
1058
1064
1066
1070
1072
1074
1076
1076
1076
1074
1074
1068
1066
1064
1060
1058
1056
1054
1050
1048
1048
1048
1050
1052
1054
1056
1058
1062
1068
1070
1074
1076
1080
1082
1084
1086
1086
1086
1084
1082
1076
1072
1070
1064
1060
1056
1052
1042
1038
1036
1034
1032
1030
1030
1032
1036
1040
1046
1052
1070
1080
1092
1104
1118
1146
1160
1176
1192
1208
1238
1252
1268
1280
1294
1306
1318
1336
1342
1348
1350
1354
1356
1352
1350
1344
1340
1330
1322
1300
1286
1272
1254
1238
1244
1222
1202
1178
1154
1106
1080
1054
1026
1000
972
946
892
866
840
814
790
744
722
700
680
658
638
618
580
564
546
532
518
494
486
476
470
464
456
456
456
460
462
468
474
490
502
512
524
534
560
574
586
598
608
620
630
646
652
656
660
662
664
662
658
654
650
638
632
624
618
610
604
596
582
578
572
568
562
556
554
552
552
550
552
552
554
556
556
558
560
566
568
570
572
574
576
576
578
580
580
580
580
580
580
580
580
580
582
582
582
584
586
588
590
598
602
606
612
618
632
640
646
654
662
672
680
694
702
708
714
720
728
730
732
732
732
730
726
722
718
712
706
700
684
676
668
660
650
632
622
612
604
594
586
576
558
550
540
534
526
512
508
502
498
494
490
490
488
490
490
494
496
506
512
518
526
532
548
558
566
576
584
594
602
618
626
632
638
644
654
658
660
662
662
660
658
656
652
646
640
634
620
612
602
592
582
562
552
540
530
520
510
498
480
472
462
454
446
434
428
422
418
414
410
406
402
402
400
400
400
402
404
406
410
412
420
426
430
436
442
450
456
472
482
490
498
506
524
532
540
548
554
560
566
574
578
580
580
580
578
574
570
566
560
544
534
524
514
502
490
478
452
440
426
412
398
374
362
350
340
328
320
312
300
298
294
294
294
296
302
308
320
332
358
350
340
364
388
386
384
466
522
578
582
586
738
844
950
1090
1232
1398
1566
1874
2008
2144
2492
2842
2798
2758
2718
2678
2638
1970
1564
1160
756
350
104
-143
-467
-509
-553
-505
-459
-163
-145
-127
-91
-55
-13
26
94
74
52
56
58
78
86
94
98
102
106
108
120
128
134
142
150
168
180
192
206
218
246
262
278
296
312
324
334
374
394
414
430
446
476
490
504
518
532
546
558
586
600
612
626
638
666
680
694
710
724
754
768
784
798
814
830
846
876
890
906
920
936
966
980
996
1010
1026
1040
1056
1088
1090
1094
1110
1128
1164
1182
1202
1222
1242
1286
1308
1332
1354
1378
1400
1424
1468
1482
1498
1510
1524
1544
1550
1558
1560
1562
1560
1560
1548
1536
1526
1544
1562
1522
1498
1474
1456
1438
1364
1326
1288
1252
1216
1182
1148
1084
1054
1024
994
966
906
876
846
814
784
754
722
678
656
632
626
620
594
586
576
570
564
560
556
554
556
556
558
560
564
568
570
572
574
578
578
578
576
574
572
568
558
552
546
538
530
514
506
496
488
478
470
460
442
434
424
416
408
392
386
378
372
364
352
346
340
336
330
324
318
308
304
298
294
288
278
274
268
264
260
256
252
246
244
242
242
242
242
244
246
248
250
258
262
266
270
274
280
284
292
296
298
300
302
306
306
306
306
304
304
302
298
296
294
292
290
288
288
286
286
286
290
292
294
298
302
306
310
322
328
334
342
348
362
370
376
384
392
400
408
424
434
442
452
460
482
494
504
518
530
544
556
586
602
618
636
652
686
704
720
736
752
778
790
802
812
822
828
836
844
846
848
846
844
838
832
826
820
814
806
800
786
780
774
768
762
756
754
750
748
746
744
744
744
746
746
748
748
752
756
758
762
770
774
778
782
788
792
798
808
814
820
824
830
840
844
850
854
858
864
866
868
868
870
868
868
866
864
862
858
854
846
840
836
830
824
818
812
798
790
784
776
768
756
748
740
734
728
716
712
706
704
702
702
700
704
708
712
720
726
750
738
726
744
762
786
812
814
854
896
952
1008
1058
1082
1106
1138
1170
1192
1214
1246
1250
1254
1262
1270
1284
1296
1308
1316
1326
1328
1342
1356
1316
1276
1314
1354
1472
1450
1428
1554
1682
2000
2148
2296
2420
2546
2904
3264
3134
3052
2972
2884
2798
2038
1568
1098
656
214
-63
-79
-95
18
132
194
254
284
320
354
392
430
488
494
498
520
542
564
586
626
640
654
666
678
700
710
718
724
730
736
738
738
736
734
730
724
710
700
690
680
668
644
632
618
606
592
580
566
542
532
520
512
502
488
484
480
478
476
478
482
484
490
496
506
514
536
550
562
578
592
588
608
628
650
672
696
718
766
790
814
838
862
906
928
950
968
988
1002
1016
1046
1058
1072
1084
1096
1118
1128
1138
1146
1154
1168
1174
1180
1184
1188
1190
1194
1196
1194
1194
1190
1188
1176
1166
1158
1146
1136
1122
1108
1126
1106
1086
1062
1040
990
962
934
910
888
816
780
746
730
712
688
662
616
598
578
570
560
534
524
512
502
492
484
476
462
456
450
446
440
432
430
426
424
420
414
412
410
410
408
408
406
406
406
406
406
406
408
408
408
408
408
408
408
406
406
404
402
400
396
394
390
388
386
380
378
376
376
374
374
374
376
380
382
388
392
404
412
420
430
438
450
460
482
494
506
518
528
550
560
568
576
584
590
594
598
598
596
592
588
574
564
554
542
528
496
480
462
456
450
428
404
360
338
316
300
284
256
244
230
220
210
202
194
184
182
180
180
180
184
190
194
200
206
222
232
242
252
262
272
282
304
316
326
336
346
364
372
380
386
392
398
402
406
408
408
408
406
400
396
390
384
378
362
354
346
338
328
320
310
292
286
278
272
264
254
250
246
244
242
242
240
240
242
242
246
248
254
258
260
266
270
280
286
292
300
308
316
324
342
352
362
374
386
410
422
434
448
460
472
484
506
516
524
532
540
552
556
560
562
564
564
564
560
556
552
548
544
536
532
526
524
520
514
512
510
510
510
512
512
518
522
524
530
534
546
554
560
566
572
580
586
600
608
614
622
628
640
648
654
660
666
678
686
692
698
704
712
718
732
740
746
752
758
770
776
782
788
794
798
804
814
818
824
828
834
846
852
860
864
870
888
894
900
910
922
918
916
966
956
948
994
1042
946
1038
1132
1266
1400
1566
1732
2084
2242
2400
2704
3008
3198
3160
3124
2834
2546
2210
1824
1438
1102
766
532
298
104
130
156
312
468
466
494
522
562
602
640
676
732
708
682
694
704
722
728
734
736
738
738
738
742
742
742
744
744
746
748
748
750
750
756
758
764
768
772
778
790
796
802
808
814
828
836
844
852
860
868
876
892
900
910
920
930
948
958
968
978
988
1008
1018
1028
1038
1048
1058
1068
1086
1096
1106
1114
1124
1140
1148
1156
1164
1172
1180
1188
1202
1210
1218
1226
1234
1252
1262
1274
1286
1298
1326
1340
1356
1350
1346
1366
1388
1434
1458
1484
1508
1534
1570
1584
1600
1610
1622
1630
1640
1650
1652
1654
1650
1648
1638
1630
1622
1610
1600
1572
1556
1542
1538
1534
1516
1500
1464
1444
1426
1406
1386
1342
1316
1292
1264
1238
1224
1212
1142
1104
1066
1026
988
910
872
836
800
766
736
706
692
670
646
626
606
580
566
552
542
530
506
496
486
478
470
462
454
440
436
430
426
420
414
412
410
410
410
412
412
416
422
426
432
436
452
460
468
478
486
502
512
520
530
538
546
552
566
572
576
580
584
592
594
596
598
600
602
604
606
608
610
612
614
618
622
624
628
630
636
640
642
646
648
652
654
658
660
662
664
664
664
666
666
666
666
666
666
666
668
668
670
670
674
678
680
684
686
696
700
704
710
714
718
720
728
730
732
732
732
730
728
724
720
714
708
700
684
676
666
656
646
628
618
608
600
590
582
574
562
556
550
546
540
534
532
528
526
524
520
518
516
516
514
514
512
510
510
510
510
510
512
514
514
518
520
524
526
534
538
542
548
552
560
564
568
572
574
578
580
582
582
582
582
582
580
578
576
576
574
570
570
568
568
566
566
564
562
562
562
562
560
560
560
560
560
560
560
562
562
564
564
568
570
576
582
586
592
598
612
620
628
638
646
654
662
680
688
694
700
706
714
714
714
712
710
698
690
680
668
656
666
676
636
612
588
562
536
484
452
420
388
356
326
294
258
238
218
202
184
160
154
146
140
132
132
132
144
122
98
118
138
188
170
150
198
246
378
462
546
572
596
716
836
1138
1312
1488
1672
1856
2272
2526
2780
2932
3086
2858
2632
2530
2138
1748
1264
780
-119
-263
-409
-437
-465
-265
-139
-15
8
32
74
114
202
234
264
238
210
210
218
224
228
230
230
228
220
218
216
214
212
206
206
204
204
204
210
216
220
228
234
244
254
280
296
310
326
342
348
372
394
418
442
464
486
520
534
548
562
574
594
602
610
616
622
628
630
632
632
632
632
632
630
628
626
626
626
626
628
628
630
632
638
642
652
660
668
678
686
708
722
736
750
764
762
798
818
838
860
884
932
956
980
1004
1030
1076
1098
1122
1134
1148
1162
1176
1198
1206
1214
1218
1224
1224
1222
1222
1216
1210
1200
1190
1162
1168
1176
1152
1130
1134
1098
1064
1022
982
890
840
792
744
696
648
600
512
474
434
402
370
388
370
350
344
338
328
318
306
304
300
296
292
288
288
286
286
286
288
290
290
292
294
296
298
302
304
306
310
312
318
322
324
328
332
338
342
354
362
368
376
382
398
406
414
424
432
448
456
464
472
478
486
492
502
506
508
510
512
512
512
510
508
504
502
498
488
484
478
474
468
460
456
450
448
444
442
438
436
438
438
440
442
448
454
460
468
474
490
500
510
522
532
544
554
576
588
598
608
616
632
638
644
648
650
652
652
650
648
644
640
634
622
616
608
600
592
578
572
564
560
554
550
544
536
534
532
530
528
524
524
522
520
518
516
514
510
508
504
502
498
490
486
482
478
474
466
464
460
458
454
452
448
444
444
442
442
442
442
444
444
446
448
450
450
456
458
460
464
466
472
476
478
482
484
490
494
496
498
500
504
506
512
516
518
522
526
534
540
544
550
556
564
570
588
600
610
622
634
662
678
694
694
692
714
734
776
798
822
844
868
906
920
936
948
960
978
984
990
992
994
992
990
980
972
964
952
940
914
898
882
866
850
832
816
782
766
750
736
720
690
676
662
650
636
614
604
594
586
576
568
560
548
546
542
538
534
524
526
526
534
542
530
518
564
550
534
506
476
598
688
776
900
1024
1342
1456
1572
1850
2130
2352
2576
3112
3312
3514
3572
3632
3378
3078
2780
2378
1976
1544
1112
464
342
220
168
114
160
248
334
346
358
366
382
396
418
440
460
478
502
514
526
538
550
574
586
596
606
616
626
636
658
668
678
690
702
728
742
754
766
780
796
812
844
860
878
884
892
930
950
970
988
1008
1050
1066
1082
1096
1112
1126
1140
1166
1178
1190
1200
1210
1230
1238
1246
1252
1260
1266
1272
1282
1286
1290
1292
1296
1302
1304
1306
1308
1312
1316
1318
1322
1326
1330
1334
1338
1350
1356
1364
1372
1382
1402
1414
1426
1438
1452
1466
1480
1510
1524
1540
1554
1568
1596
1606
1618
1628
1638
1652
1654
1658
1658
1658
1654
1650
1634
1620
1606
1620
1634
1588
1580
1574
1536
1500
1460
1420
1338
1296
1254
1210
1168
1084
1042
1002
960
920
838
798
724
688
654
618
554
548
542
520
498
460
452
444
434
422
414
404
388
382
374
370
364
356
354
350
348
346
344
342
338
336
334
332
330
324
322
318
314
308
298
292
286
280
272
266
258
240
232
222
214
204
186
178
168
160
152
146
138
124
120
114
112
108
104
106
106
108
110
118
124
130
138
146
156
166
188
202
214
230
244
274
290
304
320
336
352
366
396
410
422
434
446
466
474
480
486
490
494
494
492
490
486
480
474
460
452
442
434
424
404
394
384
376
366
358
350
334
328
322
318
314
306
304
302
300
298
296
296
296
296
294
294
294
292
292
292
292
292
290
292
292
294
294
296
298
304
308
312
318
324
338
346
352
360
368
378
386
404
412
420
428
434
448
454
458
464
468
474
476
478
480
480
482
482
486
488
488
492
494
500
506
510
516
520
528
534
550
558
566
576
586
604
614
624
634
642
662
672
680
690
698
708
716
734
744
752
768
786
794
802
810
818
824
830
840
844
848
850
852
850
848
846
840
836
822
812
802
790
780
768
758
730
716
700
686
670
640
626
610
596
580
566
550
520
506
492
480
466
442
432
420
412
402
384
378
372
366
360
360
360
378
366
352
328
304
374
356
338
398
456
546
636
886
1048
1212
1308
1404
2008
2270
2532
2794
3058
3222
3388
3412
3250
3090
2812
2534
1704
1306
908
652
394
50
-7
-67
-43
-21
90
200
202
202
200
214
228
268
286
304
310
314
322
328
344
352
358
364
368
376
380
382
386
388
392
396
398
402
406
412
416
426
432
438
446
454
470
478
486
496
504
514
522
538
546
554
560
566
578
584
588
592
596
602
606
608
612
614
618
620
630
636
640
648
654
670
680
690
702
712
724
736
762
776
792
808
824
856
872
888
898
908
942
958
974
990
1008
1024
1042
1076
1094
1114
1132
1152
1192
1212
1232
1254
1276
1290
1304
1330
1338
1348
1354
1360
1364
1362
1362
1356
1350
1338
1328
1364
1342
1322
1296
1270
1242
1202
1164
1122
1080
992
950
908
866
824
784
746
676
644
612
584
556
544
522
500
482
462
450
436
412
402
392
384
374
360
356
350
348
346
344
346
348
352
354
360
364
376
384
392
400
406
422
430
438
446
452
460
466
476
480
484
488
490
494
496
496
496
496
494
494
494
494
492
492
492
492
492
492
494
494
496
498
500
502
504
508
510
516
520
522
526
530
536
542
546
550
554
564
570
576
584
590
598
604
620
630
638
648
656
674
684
692
702
710
720
728
740
746
752
756
758
758
756
752
746
740
724
716
706
696
684
662
652
640
630
620
602
594
584
578
572
568
562
554
552
550
550
548
550
552
554
556
558
562
564
570
576
580
586
590
600
606
612
620
626
640
648
656
664
672
680
686
700
708
714
718
722
730
732
732
732
732
730
728
718
714
708
700
692
676
668
658
648
638
618
608
598
590
580
572
562
544
538
530
524
516
504
500
494
490
486
484
482
482
484
484
488
492
502
510
518
528
538
560
574
586
600
612
626
640
668
682
694
706
718
738
746
754
758
762
764
768
770
766
764
758
746
738
730
722
712
702
692
670
660
648
636
624
600
588
576
564
550
526
514
502
492
480
472
462
446
436
426
422
416
418
420
422
404
384
400
416
344
390
434
496
558
526
650
772
932
1094
1374
1622
1870
2132
2394
2612
2832
3130
3166
3204
3094
2984
2474
2116
1758
1352
946
598
250
-113
-217
-321
-331
-343
-85
-89
-93
-61
-29
8
44
78
110
142
154
164
208
230
250
270
288
322
340
358
374
390
406
420
448
464
478
492
504
532
546
558
572
586
612
624
636
648
660
672
684
706
716
726
736
746
766
774
780
786
790
796
802
804
806
806
808
806
804
802
800
798
794
790
784
782
780
778
776
774
776
778
782
786
798
808
818
830
842
858
874
860
882
904
930
956
1010
1038
1066
1098
1132
1164
1196
1258
1272
1288
1312
1336
1380
1390
1402
1414
1428
1448
1454
1462
1464
1468
1468
1468
1460
1452
1446
1434
1424
1394
1402
1412
1388
1366
1340
1316
1284
1248
1214
1176
1140
1066
1028
990
952
914
832
790
750
708
664
620
574
488
446
404
400
394
348
354
358
350
340
336
332
336
340
342
348
352
368
378
386
396
406
424
434
442
450
456
462
468
474
476
478
478
478
476
474
472
468
464
462
458
450
446
442
438
434
426
422
418
414
410
406
402
392
388
384
380
374
364
360
354
350
344
336
334
330
328
326
326
326
328
332
334
340
344
356
364
372
382
392
402
412
434
444
454
464
472
488
494
500
506
510
514
514
514
512
510
508
504
494
490
484
480
474
464
460
454
452
448
446
444
442
442
442
444
446
450
454
456
458
460
466
468
470
472
474
476
476
478
478
476
476
474
472
470
468
466
464
462
460
456
454
452
452
450
448
448
448
448
446
446
446
446
446
446
446
446
446
446
444
444
444
442
440
438
438
436
434
432
430
428
426
426
424
422
422
422
422
422
424
426
430
434
438
442
446
460
468
474
484
492
512
522
532
544
556
568
578
602
614
626
636
646
666
674
682
690
696
702
706
710
710
710
708
706
698
692
686
678
668
650
638
626
614
602
590
576
552
540
528
516
504
484
476
466
460
454
450
444
438
436
434
436
436
440
444
448
454
458
470
478
486
494
502
514
524
544
558
570
582
594
626
626
626
650
672
674
676
752
748
744
800
858
1014
1118
1224
1354
1486
1784
1938
2094
2214
2334
2584
2834
3038
2908
2780
2648
2518
2234
1880
1526
1162
798
504
208
-133
-165
-199
-131
-65
158
146
132
134
134
152
168
206
210
214
220
224
238
246
254
262
268
282
290
296
304
312
320
328
346
356
366
376
384
400
408
416
424
430
436
442
450
454
456
458
460
462
464
464
466
466
466
468
470
472
472
476
478
486
492
496
502
506
518
526
532
540
546
554
560
576
584
592
600
608
624
634
642
652
660
678
690
700
712
722
734
746
772
786
800
814
830
862
878
896
912
928
944
962
994
1008
1022
1034
1048
1070
1078
1086
1090
1096
1098
1096
1094
1088
1084
1074
1064
1036
1048
1060
1038
1016
962
946
932
894
858
818
778
698
656
612
570
528
444
406
366
330
294
264
232
234
214
194
184
174
150
140
130
124
116
100
94
86
80
74
68
62
50
44
36
28
20
2
-5
-15
-25
-37
-47
-59
-83
-93
-105
-117
-129
-151
-159
-169
-177
-187
-199
-203
-209
-213
-217
-217
-219
-219
-217
-215
-211
-209
-199
-193
-187
-179
-173
-165
-157
-141
-131
-121
-111
-101
-81
-69
-59
-47
-35
-13
-1
10
22
32
42
52
72
80
88
96
102
114
118
122
126
128
130
130
130
130
130
128
126
122
122
120
118
116
112
112
110
110
108
108
106
106
106
106
106
106
106
108
108
108
108
108
108
110
110
110
112
112
114
116
116
118
120
124
126
132
136
140
146
150
158
162
166
170
172
176
176
176
176
174
170
166
154
146
138
128
116
92
78
62
48
34
20
4
-25
-39
-53
-65
-77
-95
-101
-109
-113
-117
-119
-117
-115
-109
-105
-97
-89
-69
-55
-43
-29
-15
18
20
22
42
60
82
102
146
170
192
216
238
288
314
338
362
386
434
448
462
476
490
500
510
526
530
534
536
538
534
530
526
520
512
506
498
480
472
462
456
448
434
430
424
422
420
422
426
430
436
442
454
464
492
482
472
494
516
564
578
590
628
664
702
740
814
850
888
922
958
1022
1050
1080
1092
1104
1128
1154
1204
1228
1254
1280
1306
1356
1384
1412
1444
1478
1506
1552
1598
1606
1616
1680
1746
1902
2004
2106
2234
2364
2670
2798
2926
3132
3340
3580
3820
4168
4252
4336
4148
3962
3840
3532
3226
2792
2358
1506
1250
994
854
716
734
752
1008
1170
1334
1470
1608
1634
1668
1702
1682
1664
1688
1712
1708
1714
1722
1728
1734
1742
1748
1754
1758
1762
1770
1772
1776
1778
1780
1780
1782
1782
1780
1778
1774
1772
1760
1752
1744
1734
1724
1712
1700
1672
1656
1642
1626
1610
1576
1560
1544
1528
1512
1486
1474
1462
1452
1444
1438
1432
1426
1426
1426
1428
1432
1444
1452
1460
1470
1482
1494
1506
1534
1548
1562
1576
1592
1620
1634
1648
1662
1676
1688
1700
1722
1732
1742
1750
1760
1774
1778
1784
1786
1790
1794
1794
1794
1790
1788
1784
1780
1770
1762
1754
1744
1736
1716
1704
1692
1678
1666
1650
1636
1606
1602
1598
1568
1540
1532
1514
1496
1476
1456
1412
1386
1362
1356
1350
1316
1284
1208
1166
1126
1084
1044
964
926
890
854
820
788
758
698
672
644
618
590
550
526
502
482
460
434
420
406
396
384
376
366
352
348
342
340
338
336
338
338
340
340
342
344
348
350
350
350
350
350
348
346
344
340
334
330
326
322
318
314
310
302
300
298
298
298
300
304
308
314
320
328
334
354
366
376
388
400
424
436
448
460
472
482
492
508
514
518
522
526
526
526
524
520
514
502
494
484
474
464
452
440
412
398
384
368
352
320
304
288
272
254
238
222
192
178
162
150
138
118
110
102
98
92
90
92
94
100
106
114
122
144
158
170
184
198
228
244
258
272
286
298
308
328
336
342
346
348
348
346
344
338
332
314
304
292
280
268
256
242
216
204
190
180
168
150
142
134
130
124
122
120
120
122
124
130
134
148
158
166
176
186
210
224
236
252
266
282
296
328
344
360
378
394
426
442
458
474
488
502
514
538
548
558
566
574
586
590
594
598
600
600
600
600
598
596
594
592
588
586
584
582
580
576
576
574
574
572
570
568
566
564
562
560
558
554
550
546
544
540
538
534
528
526
524
524
522
524
526
528
532
536
548
556
564
574
582
592
602
622
634
644
654
664
684
694
704
714
724
734
742
768
776
786
798
816
830
846
842
838
890
878
868
914
962
946
930
1098
1214
1330
1462
1594
1904
2052
2200
2376
2554
2768
2984
3062
2960
2860
2634
2408
1810
1464
1120
850
582
164
48
-67
-95
-123
68
260
268
298
328
374
418
514
558
600
576
552
568
584
608
616
624
628
632
628
628
626
624
620
616
612
600
594
588
582
576
564
558
552
548
544
538
536
532
532
530
530
530
530
532
534
538
540
546
552
556
562
566
572
578
594
602
610
620
628
650
662
674
688
700
728
744
758
772
786
802
820
852
868
884
900
916
946
960
974
986
1000
1010
1022
1042
1050
1060
1066
1074
1086
1090
1096
1100
1106
1112
1114
1118
1120
1124
1124
1126
1128
1128
1128
1126
1126
1120
1116
1112
1106
1100
1092
1084
1066
1054
1044
1032
1020
992
976
960
944
928
920
900
882
862
844
822
802
738
716
694
670
620
594
568
542
516
490
462
410
384
358
334
310
262
242
220
200
178
160
140
106
90
72
58
42
16
6
-5
-15
-25
-41
-47
-53
-57
-61
-61
-63
-63
-59
-57
-51
-47
-35
-27
-19
-9
-1
10
20
42
54
66
78
90
114
128
140
152
164
190
202
212
224
236
248
258
278
288
296
304
310
322
326
330
332
334
334
334
330
328
324
320
314
302
294
286
280
272
256
250
242
236
230
224
218
212
210
206
206
206
210
214
216
222
226
232
238
254
262
270
280
290
308
318
328
338
346
364
372
380
388
394
400
406
418
422
426
430
432
436
438
438
438
438
438
436
434
432
430
428
426
422
420
416
414
412
410
408
404
404
404
404
404
408
412
416
422
426
438
446
454
464
474
484
494
518
532
544
558
570
598
612
624
638
652
666
680
706
720
732
744
756
776
786
796
804
814
828
834
840
844
850
852
856
860
860
862
862
862
860
858
856
854
852
850
850
846
844
844
842
842
842
842
842
842
844
844
844
846
846
846
846
846
844
844
844
842
842
842
840
840
840
840
840
842
844
846
848
850
854
858
862
866
868
872
878
882
886
888
892
896
900
910
916
922
926
930
948
956
966
980
996
986
978
1028
1018
1008
1054
1102
1118
1196
1274
1368
1464
1570
1676
1894
1992
2090
2264
2438
2592
2586
2582
2486
2390
2146
1834
1522
1296
1070
840
610
254
138
20
-37
-97
164
156
148
166
184
220
256
350
410
468
520
570
646
686
724
758
790
786
786
788
796
806
810
816
818
814
810
804
800
786
778
770
752
744
734
716
708
698
692
684
674
670
666
662
658
654
652
650
650
648
648
646
642
642
640
640
638
636
636
636
638
638
640
642
650
656
662
670
678
696
708
718
730
742
766
778
792
804
816
826
836
856
862
870
874
880
884
884
886
884
882
878
876
868
862
856
850
844
830
822
816
810
804
798
792
780
774
770
764
752
748
742
738
734
726
722
718
714
710
706
702
694
690
686
682
676
666
662
656
650
642
634
626
608
598
588
576
562
536
520
504
506
506
468
448
426
404
380
358
334
286
262
238
214
190
142
120
96
74
52
32
10
-27
-41
-55
-69
-83
-107
-117
-127
-135
-143
-153
-155
-159
-159
-161
-161
-161
-157
-153
-149
-145
-141
-131
-127
-123
-119
-115
-111
-107
-103
-101
-101
-101
-101
-105
-107
-111
-113
-117
-127
-131
-135
-139
-143
-147
-151
-155
-155
-157
-157
-157
-151
-147
-143
-137
-133
-125
-119
-105
-95
-87
-77
-69
-51
-41
-33
-25
-17
-9
-1
14
22
30
38
46
62
72
80
90
100
120
132
144
158
170
184
196
224
240
254
268
280
308
320
332
342
352
362
370
384
390
394
398
400
402
402
402
400
398
392
388
384
380
374
370
364
352
346
340
334
328
316
310
302
296
290
284
278
264
260
254
250
244
236
234
230
230
228
232
236
240
246
252
262
270
296
284
272
292
310
356
382
408
430
452
490
528
602
638
672
684
696
744
754
764
776
790
808
812
818
820
822
820
818
806
796
788
774
762
732
736
740
718
694
670
644
590
564
538
514
488
440
428
416
402
388
378
368
354
350
346
348
348
358
366
372
384
396
426
420
412
436
460
488
514
540
574
608
646
684
764
810
858
886
916
962
1010
1130
1206
1284
1376
1470
1676
1778
1880
1930
1982
2402
2434
2466
2410
2356
2306
2258
1734
1410
1088
728
366
-115
-255
-395
-385
-375
-127
118
130
162
194
244
294
440
452
464
458
450
500
526
550
572
592
610
626
654
670
684
698
710
734
744
754
762
770
776
784
796
800
806
808
812
818
820
822
824
826
828
830
832
834
838
840
844
854
860
866
872
880
898
908
918
928
940
952
966
992
1006
1020
1034
1048
1080
1096
1112
1118
1124
1138
1154
1186
1204
1222
1240
1260
1302
1324
1346
1370
1394
1444
1468
1494
1518
1542
1564
1588
1630
1642
1654
1666
1680
1702
1710
1718
1724
1730
1732
1734
1732
1728
1724
1718
1712
1694
1682
1670
1656
1642
1608
1608
1610
1588
1568
1546
1524
1476
1452
1428
1402
1378
1328
1304
1280
1256
1232
1208
1186
1142
1122
1102
1082
1064
1036
1022
1008
994
980
956
942
930
918
906
894
882
856
842
828
812
798
764
764
766
746
726
704
682
636
614
590
568
544
502
482
462
450
436
408
396
382
372
360
350
340
324
318
310
304
298
290
288
284
282
280
280
278
278
280
282
286
288
296
302
306
312
316
322
328
340
346
350
354
358
364
366
368
368
366
360
356
350
342
334
326
316
296
286
274
264
252
232
224
216
210
202
198
194
192
194
196
202
206
222
232
240
252
262
284
296
308
320
332
342
352
370
378
386
392
398
410
414
418
422
426
430
434
442
446
450
456
460
472
478
484
490
496
506
512
516
522
526
528
530
534
534
534
532
530
524
520
516
512
506
502
496
484
480
474
470
464
454
450
446
444
440
434
434
432
432
430
430
430
434
438
440
444
448
462
470
478
490
500
514
526
556
552
546
568
588
636
662
688
714
738
754
768
796
806
818
824
832
838
836
834
830
826
808
796
786
772
746
730
700
684
666
650
634
604
590
574
560
546
532
518
494
484
472
462
452
432
426
418
408
398
386
386
384
382
380
388
396
374
332
288
322
354
464
438
412
530
648
794
940
1278
1456
1636
1806
1976
2430
2580
2730
2804
2880
2490
2428
2368
2032
1696
1288
882
208
-29
-267
-369
-471
-473
-439
-405
-391
-379
-353
-327
-317
-303
-289
-273
-257
-227
-211
-197
-181
-167
-133
-127
-121
-105
-89
-71
-53
-17
0
18
38
56
104
120
136
152
166
180
194
218
230
240
250
258
274
282
288
294
300
306
310
320
326
332
338
344
358
366
374
382
390
410
422
432
444
456
468
480
506
518
530
542
554
578
590
600
612
622
632
642
660
670
680
690
700
720
732
742
754
764
790
804
818
816
814
832
850
892
916
940
946
954
1022
1060
1098
1138
1178
1220
1262
1300
1302
1304
1316
1328
1338
1368
1400
1390
1380
1464
1428
1392
1346
1300
1254
1208
1050
978
906
844
784
766
728
690
660
630
634
638
612
600
588
578
568
552
548
542
538
532
526
524
522
522
520
522
522
524
526
528
532
534
542
546
550
556
560
566
570
578
584
588
592
594
600
602
602
602
600
598
596
588
582
576
568
560
540
530
520
508
496
472
462
450
440
428
418
406
388
382
374
370
364
358
358
358
360
360
366
370
382
392
400
412
422
446
460
474
488
502
532
548
562
576
590
604
616
638
648
656
662
668
674
674
674
672
668
662
656
638
626
614
600
586
554
550
544
524
502
458
438
416
398
380
366
350
324
314
302
294
284
272
268
262
262
260
260
260
264
268
270
276
280
290
296
302
308
314
324
330
336
340
344
348
352
360
364
366
368
370
374
376
378
380
382
384
386
392
394
396
398
400
406
408
410
412
412
414
414
414
414
412
412
410
406
404
400
398
394
386
384
380
378
374
372
368
364
364
364
364
364
366
368
370
374
376
380
384
394
400
406
412
418
432
440
446
454
462
478
486
494
502
508
516
524
540
548
554
562
568
582
590
596
604
610
618
626
642
650
658
668
678
698
714
728
726
722
770
750
792
836
828
822
982
1078
1174
1300
1426
1706
1872
2038
2228
2420
2586
2754
3252
3268
3286
3142
3000
2468
2136
1804
1474
1146
738
622
506
516
526
644
762
1122
1244
1366
1456
1546
1346
1382
1420
1436
1452
1432
1412
1410
1400
1392
1388
1386
1374
1364
1356
1348
1340
1330
1320
1300
1290
1280
1270
1262
1242
1234
1226
1218
1210
1198
1192
1188
1184
1182
1180
1180
1182
1184
1186
1190
1194
1206
1214
1222
1232
1242
1252
1264
1288
1300
1314
1328
1344
1376
1392
1408
1414
1422
1458
1476
1494
1512
1530
1548
1566
1604
1622
1642
1660
1678
1718
1736
1756
1776
1796
1814
1834
1872
1890
1910
1928
1948
1978
1992
2006
2018
2030
2050
2058
2068
2074
2082
2086
2092
2098
2098
2098
2096
2096
2088
2082
2076
2068
2060
2048
2038
2016
2002
1988
1990
1994
1956
1932
1910
1886
1862
1852
1818
1786
1746
1708
1662
1618
1550
1488
1428
1364
1300
1170
1106
1044
984
924
868
812
708
654
598
540
480
342
264
186
106
24
-51
-129
-153
-195
-237
-271
-307
-365
-367
-371
-387
-403
-435
-447
-459
-467
-475
-479
-483
-489
-489
-489
-485
-483
-473
-463
-455
-445
-435
-423
-411
-385
-371
-357
-343
-329
-303
-289
-277
-265
-253
-233
-225
-217
-209
-203
-199
-195
-189
-187
-187
-187
-189
-193
-197
-201
-205
-209
-213
-219
-231
-235
-241
-245
-251
-261
-265
-269
-271
-273
-277
-275
-275
-273
-271
-267
-265
-255
-247
-241
-231
-223
-205
-193
-183
-171
-159
-147
-135
-111
-99
-87
-75
-63
-41
-29
-19
-9
-1
16
24
30
36
40
46
50
56
58
60
60
60
60
60
58
56
54
52
50
44
42
38
36
34
28
26
24
22
20
18
16
14
12
10
10
8
6
6
4
4
2
2
2
2
4
6
10
12
18
24
30
36
42
58
66
74
84
92
102
110
128
136
144
150
156
168
172
176
178
180
178
178
176
172
168
164
158
144
138
130
122
114
98
90
80
72
64
58
50
36
30
24
20
14
8
6
4
4
4
8
10
12
18
22
28
32
52
48
42
62
80
68
104
140
124
106
164
222
394
512
628
774
922
1166
1388
1610
1844
2078
2542
2732
2922
3020
3118
3074
3032
2642
2342
2044
1630
1216
566
328
88
-27
-145
-165
-185
-111
-27
54
74
94
120
146
170
214
258
266
274
310
328
344
360
376
404
424
444
460
474
506
522
538
554
570
574
576
614
634
652
672
692
732
752
772
790
810
828
846
876
890
906
920
934
960
972
986
998
1010
1034
1046
1058
1068
1080
1092
1104
1126
1138
1150
1160
1172
1192
1202
1212
1220
1230
1238
1246
1262
1268
1276
1282
1288
1302
1308
1314
1322
1330
1348
1358
1368
1380
1392
1406
1422
1454
1450
1446
1468
1490
1540
1566
1592
1618
1646
1672
1700
1750
1762
1774
1788
1802
1824
1830
1838
1840
1844
1842
1836
1832
1822
1814
1800
1788
1810
1788
1766
1742
1718
1664
1642
1622
1586
1550
1514
1478
1410
1376
1344
1330
1316
1266
1244
1222
1214
1206
1194
1184
1168
1162
1158
1156
1154
1156
1160
1164
1170
1176
1194
1202
1212
1222
1234
1244
1256
1278
1288
1298
1306
1314
1328
1332
1336
1338
1340
1340
1340
1332
1326
1320
1312
1304
1282
1268
1254
1238
1224
1222
1202
1182
1160
1140
1118
1098
1054
1032
1012
990
970
930
910
892
874
856
836
818
786
772
758
746
732
708
698
686
676
666
648
640
632
626
620
614
608
598
594
590
586
580
572
568
562
556
550
544
536
520
510
500
488
476
450
436
420
404
386
380
360
338
318
296
274
252
206
186
164
142
120
78
58
36
16
-3
-21
-41
-71
-85
-99
-111
-123
-141
-149
-157
-161
-167
-171
-175
-177
-177
-177
-175
-173
-167
-163
-161
-155
-151
-143
-139
-137
-133
-131
-129
-129
-129
-131
-133
-137
-141
-155
-163
-173
-185
-197
-211
-225
-257
-255
-253
-275
-297
-347
-371
-397
-423
-449
-499
-523
-547
-567
-589
-597
-605
-631
-641
-653
-659
-667
-677
-679
-681
-681
-681
-677
-675
-665
-657
-649
-639
-629
-605
-589
-575
-559
-543
-551
-527
-505
-477
-449
-439
-431
-345
-325
-305
-249
-195
-65
22
108
222
336
466
594
894
1040
1188
1374
1560
1956
2000
2044
1838
1632
1450
1142
834
432
28
-319
-669
-1197
-1329
-1463
-1473
-1483
-1105
-1109
-1113
-1085
-1057
-1011
-967
-871
-829
-789
-787
-787
-735
-711
-687
-665
-645
-625
-607
-571
-553
-537
-519
-503
-463
-443
-423
-399
-377
-331
-305
-281
-255
-231
-207
-183
-137
-123
-111
-97
-83
-57
-47
-37
-27
-19
-11
-3
8
16
22
28
34
50
58
66
76
86
110
124
136
152
166
184
200
208
228
248
268
288
330
352
374
396
418
442
466
516
518
520
550
578
650
692
734
778
824
918
962
1008
1048
1088
1122
1156
1138
1140
1144
1154
1164
1172
1170
1170
1164
1160
1152
1146
1124
1110
1096
1078
1062
1064
1040
1018
994
970
922
896
872
846
822
798
774
728
714
698
684
670
650
642
632
628
624
624
624
638
618
598
620
642
604
650
696
708
718
794
872
1054
1154
1254
1358
1462
1666
1812
1958
2042
2126
2218
2174
2132
2168
2204
2226
2248
2268
2276
2286
2292
2298
2316
2320
2326
2328
2330
2328
2328
2322
2316
2312
2304
2296
2276
2264
2252
2238
2226
2198
2182
2168
2152
2138
2122
2108
2080
2066
2052
2038
2026
2000
1988
1976
1964
1952
1940
1928
1906
1894
1882
1868
1856
1828
1814
1800
1784
1768
1766
1748
1730
1710
1692
1672
1652
1608
1586
1564
1540
1518
1470
1446
1422
1398
1374
1350
1326
1278
1254
1230
1206
1184
1140
1118
1096
1076
1056
1016
996
978
958
940
922
904
868
850
834
812
790
748
734
722
710
700
688
668
660
652
646
640
632
630
626
624
620
618
616
614
612
608
604
600
588
582
574
564
554
526
536
546
526
506
482
458
434
398
362
324
286
206
168
128
88
48
10
-27
-101
-135
-171
-203
-235
-247
-267
-289
-307
-325
-341
-353
-365
-373
-383
-391
-399
-413
-419
-425
-427
-431
-433
-435
-437
-439
-443
-441
-441
-423
-429
-437
-417
-397
-425
-461
-497
-439
-383
-209
-91
26
174
320
488
656
1010
1176
1344
1600
1856
2156
2202
2250
2014
1780
1678
1576
858
440
22
-283
-589
-983
-1025
-1067
-817
-569
-643
-525
-407
-371
-335
-277
-219
-117
-85
-55
-19
16
86
116
146
174
200
226
252
304
330
356
384
410
468
494
520
546
570
594
616
658
666
674
686
698
716
722
728
732
734
734
732
730
726
722
716
710
696
688
680
672
662
646
638
628
622
614
608
602
592
590
586
586
586
588
592
596
604
610
626
638
648
662
674
690
704
736
742
746
764
784
824
844
864
882
902
920
940
974
992
1012
1026
1042
1066
1076
1088
1096
1106
1118
1120
1122
1120
1120
1116
1114
1098
1086
1074
1058
1044
1064
1038
1014
996
980
946
912
842
806
772
736
700
626
588
550
512
474
400
366
330
298
264
260
256
212
204
194
182
168
150
144
138
132
126
124
120
116
116
116
118
118
120
122
124
126
128
130
130
132
134
134
134
132
128
126
122
120
116
106
102
96
90
84
78
70
56
48
40
32
24
6
-3
-13
-23
-33
-43
-53
-73
-83
-95
-105
-115
-133
-141
-151
-157
-163
-171
-173
-175
-173
-173
-169
-165
-151
-141
-133
-121
-109
-81
-65
-49
-33
-17
-1
12
42
56
70
82
94
112
120
128
134
138
144
146
146
146
146
146
144
140
138
136
136
134
132
132
130
132
132
134
134
140
144
148
154
158
168
176
184
192
200
220
232
242
256
268
282
296
328
328
326
346
366
408
432
454
478
500
524
546
592
614
634
654
674
710
728
744
774
788
802
830
842
856
868
880
902
912
922
930
940
956
962
970
976
982
986
990
994
994
994
992
992
986
982
980
974
970
964
960
950
944
940
936
934
930
930
930
932
936
946
954
962
972
984
998
1012
1046
1042
1038
1060
1084
1134
1162
1190
1216
1242
1268
1294
1350
1382
1416
1456
1498
1602
1594
1588
1676
1766
1982
2100
2218
2328
2438
2520
2604
2990
2986
2984
2884
2784
2556
2248
1942
1600
1258
980
704
364
316
268
312
354
626
644
660
698
734
818
856
894
920
948
936
924
962
974
988
998
1010
1026
1030
1036
1042
1048
1052
1058
1062
1062
1064
1064
1064
1062
1058
1056
1052
1048
1044
1040
1030
1024
1020
1014
1008
998
992
986
980
976
966
962
958
954
952
948
946
940
938
938
938
938
940
942
944
948
954
960
966
982
992
1004
1016
1028
1058
1054
1050
1070
1092
1136
1160
1184
1210
1236
1262
1288
1340
1366
1392
1416
1440
1486
1506
1528
1546
1564
1574
1584
1610
1620
1632
1640
1648
1660
1664
1668
1668
1668
1664
1658
1654
1646
1640
1628
1618
1588
1596
1606
1584
1564
1512
1504
1496
1456
1416
1374
1332
1248
1208
1168
1132
1098
1038
1034
1030
1006
984
946
934
922
910
900
890
882
864
858
852
848
844
838
836
834
834
834
834
834
836
836
838
838
840
840
840
842
840
840
840
840
838
836
836
834
834
832
832
832
832
832
836
838
840
844
850
856
862
878
888
898
910
922
950
966
982
980
980
1000
1020
1064
1088
1114
1140
1166
1210
1236
1262
1290
1320
1384
1420
1456
1494
1532
1570
1610
1646
1670
1694
1696
1700
1724
1732
1740
1744
1748
1750
1752
1748
1744
1740
1734
1728
1712
1704
1696
1688
1680
1664
1656
1648
1640
1634
1628
1622
1614
1610
1606
1604
1602
1600
1600
1600
1602
1604
1608
1612
1622
1628
1634
1640
1648
1662
1670
1678
1686
1694
1706
1710
1716
1718
1722
1722
1724
1718
1712
1708
1700
1692
1670
1656
1644
1628
1614
1598
1582
1548
1530
1514
1498
1482
1448
1432
1418
1404
1390
1376
1362
1336
1324
1312
1300
1290
1268
1256
1246
1234
1224
1202
1192
1182
1172
1164
1154
1146
1132
1126
1120
1116
1112
1108
1108
1108
1110
1112
1116
1122
1136
1144
1154
1164
1174
1196
1208
1220
1232
1244
1266
1278
1290
1300
1312
1322
1334
1356
1366
1376
1386
1398
1416
1428
1442
1442
1442
1462
1482
1472
1508
1546
1526
1508
1634
1730
1826
1944
2062
2322
2466
2610
2810
3010
3118
3226
3518
3404
3292
3062
2832
2238
1918
1600
1362
1124
946
770
604
614
622
788
954
952
952
952
964
978
982
996
1012
1012
1014
1014
1014
1012
1008
1006
1000
994
980
970
962
952
944
936
928
910
902
894
886
880
866
860
856
852
848
844
842
838
836
836
836
838
840
842
846
850
854
866
872
880
888
896
904
914
936
948
960
974
988
1016
1030
1046
1062
1078
1094
1110
1142
1156
1172
1186
1200
1228
1240
1252
1262
1272
1292
1298
1306
1312
1320
1324
1330
1340
1344
1348
1352
1356
1362
1366
1370
1372
1376
1378
1382
1386
1388
1390
1390
1390
1388
1384
1380
1374
1370
1354
1344
1336
1322
1310
1294
1278
1288
1266
1244
1218
1194
1174
1140
1106
1068
1030
992
954
874
836
798
762
726
658
626
594
564
534
476
450
422
404
386
362
338
292
270
248
228
208
174
158
142
128
114
102
90
70
62
54
48
42
32
30
28
26
24
24
24
26
28
28
32
34
38
42
44
48
50
58
62
64
68
72
76
80
88
92
96
100
104
112
116
120
124
128
132
134
140
142
142
144
144
144
142
140
138
134
126
122
116
112
106
100
92
78
72
64
56
48
34
28
22
16
8
4
-1
-11
-15
-19
-21
-25
-27
-27
-29
-29
-29
-25
-21
-19
-13
-9
-3
2
18
28
36
46
56
78
90
100
112
124
136
146
166
176
184
192
198
208
212
214
216
216
214
212
208
204
198
194
188
176
170
162
156
150
138
132
126
122
116
112
106
100
98
94
92
88
86
86
84
84
84
86
88
92
98
102
108
112
126
136
144
154
164
186
198
210
224
236
250
262
288
300
312
324
336
356
366
374
382
390
396
402
410
414
416
416
416
414
412
408
404
400
388
382
374
366
356
348
338
320
312
302
294
284
268
262
256
252
248
248
246
246
250
254
260
264
234
254
274
296
318
308
348
388
376
364
498
630
642
876
1028
1180
1382
1654
1928
2158
2388
2638
2888
3220
3240
3260
3108
2956
2414
1994
1576
1170
764
258
100
-57
-85
-115
-47
18
286
306
324
362
400
484
520
556
582
606
606
604
648
668
688
704
720
746
756
766
778
790
800
812
832
842
852
860
870
888
896
906
914
922
940
948
956
964
972
980
988
1002
1008
1014
1018
1024
1030
1032
1034
1034
1036
1034
1032
1026
1022
1018
1012
1008
996
988
982
974
968
956
950
946
942
938
936
934
934
936
938
942
946
960
968
978
988
1000
1012
1026
1056
1072
1088
1104
1122
1138
1158
1178
1200
1222
1252
1266
1280
1292
1304
1312
1322
1334
1336
1340
1338
1338
1330
1322
1314
1302
1290
1302
1316
1272
1246
1220
1212
1204
1126
1084
1042
996
950
856
808
712
662
614
564
470
426
380
340
300
228
200
170
174
178
158
138
114
102
88
80
70
56
48
40
36
30
26
20
14
12
8
6
4
2
2
0
0
-1
-1
-1
-1
-1
-1
0
0
2
4
4
6
8
14
16
18
22
24
28
30
36
40
42
46
48
56
60
62
66
68
76
80
82
86
90
94
96
104
108
112
118
122
132
138
144
150
156
164
172
188
198
208
218
228
252
264
274
286
298
324
336
346
358
370
380
390
408
416
422
428
434
442
446
448
450
450
450
450
448
448
446
444
440
434
432
428
424
418
410
406
400
396
390
386
380
370
366
360
356
350
342
340
336
334
332
332
332
336
340
342
348
352
366
376
384
396
406
418
430
456
472
486
500
514
544
558
572
586
600
626
638
648
658
666
674
682
692
696
700
702
702
702
700
698
696
692
688
684
674
670
664
658
652
642
638
634
630
626
622
620
618
620
620
622
624
632
638
642
650
658
674
686
696
708
718
730
742
766
778
790
800
812
832
840
850
856
862
870
870
872
870
870
866
864
856
850
844
836
830
816
810
806
802
798
792
788
788
788
788
794
802
776
794
812
800
788
868
858
848
914
982
1074
1168
1406
1550
1694
1852
2012
2326
2544
2764
2930
3098
3180
3264
2910
2854
2798
2510
2222
1420
1086
752
504
256
144
30
66
274
480
486
490
554
598
642
682
720
672
660
646
650
652
652
650
638
628
618
610
600
578
568
558
548
538
528
518
502
496
488
484
480
474
474
472
472
472
476
480
484
488
492
498
502
514
520
526
534
540
556
564
572
582
590
600
608
628
638
648
660
672
694
708
720
734
746
770
782
796
810
824
836
850
874
886
898
908
920
940
948
958
964
972
978
986
996
1000
1004
1006
1010
1016
1018
1020
1022
1024
1026
1028
1030
1030
1032
1032
1034
1036
1036
1038
1038
1038
1038
1038
1038
1036
1034
1030
1026
1016
1010
1006
998
990
968
952
936
942
950
928
906
918
880
844
802
664
622
580
510
440
364
322
278
242
204
176
148
168
150
132
118
102
76
66
56
48
40
30
20
4
-1
-9
-13
-19
-29
-31
-35
-35
-37
-35
-33
-31
-27
-23
-15
-9
6
16
24
36
46
68
80
92
104
114
124
134
154
162
168
174
180
188
190
192
192
192
188
184
180
176
170
164
158
144
136
128
120
112
96
88
80
74
66
60
52
42
38
32
30
26
22
22
22
22
22
26
28
30
34
38
44
48
58
66
72
80
86
102
112
120
130
140
150
160
180
190
200
212
222
242
252
260
268
276
284
292
306
312
318
324
330
340
346
350
356
360
370
374
378
384
388
392
396
404
408
410
412
414
416
416
416
416
414
414
412
408
406
402
402
400
398
400
400
404
406
414
420
426
436
444
454
464
484
496
506
518
528
546
554
562
568
574
578
580
580
578
576
572
566
552
544
536
528
518
498
490
480
472
464
458
450
440
436
432
432
430
428
430
432
434
436
440
444
452
458
464
470
474
488
494
500
508
514
530
538
546
554
562
570
578
596
604
612
622
630
644
652
658
664
670
676
680
686
690
692
694
694
696
696
696
696
696
696
696
692
694
694
698
702
708
720
732
726
720
664
694
724
772
822
800
778
992
1120
1250
1398
1548
1846
1894
1942
2246
2552
2642
2732
2408
2254
2100
1920
1742
1012
670
326
98
-129
-277
-203
-129
26
180
344
506
618
682
744
698
652
712
702
692
698
704
708
712
710
712
714
714
714
716
716
716
716
716
714
714
714
714
714
714
714
714
716
716
718
720
724
728
730
734
738
744
748
766
774
782
790
812
822
834
846
860
888
902
918
934
950
966
982
1016
1032
1050
1066
1084
1116
1130
1146
1160
1174
1186
1200
1224
1234
1244
1252
1262
1280
1286
1294
1300
1308
1314
1322
1336
1342
1350
1358
1366
1382
1390
1400
1408
1418
1436
1444
1452
1460
1468
1474
1482
1492
1494
1498
1498
1500
1498
1492
1488
1480
1474
1462
1452
1428
1412
1396
1400
1404
1360
1336
1312
1286
1260
1224
1192
1162
1130
1098
1062
1028
954
916
878
838
800
726
690
652
618
582
550
518
458
444
428
404
378
332
312
292
276
260
232
220
206
194
182
174
164
152
148
142
140
138
138
142
144
150
154
162
168
186
196
206
218
230
254
266
278
292
304
326
336
346
356
364
372
378
390
394
396
400
402
404
404
402
402
402
400
398
396
394
392
392
390
388
388
386
386
386
386
386
388
390
390
392
394
398
402
404
408
410
416
422
426
432
436
442
448
460
468
474
482
490
506
516
524
534
542
550
558
574
582
588
594
600
608
610
612
612
612
606
602
596
590
582
574
564
544
534
522
510
498
474
464
452
442
430
420
410
390
382
374
366
358
342
336
328
322
316
304
300
294
290
284
282
278
274
274
274
276
276
284
290
296
304
312
322
332
354
368
380
394
406
432
444
456
468
480
500
510
518
526
532
538
542
550
552
552
554
554
552
550
548
548
546
544
542
538
538
536
536
536
538
540
542
544
546
550
552
560
564
568
572
576
582
586
590
592
594
600
602
604
606
608
610
612
616
620
622
626
630
638
644
650
658
664
672
680
698
708
716
726
736
754
768
776
784
796
800
806
810
814
816
818
824
824
824
824
826
824
828
834
826
820
836
852
792
830
870
826
782
968
1096
1224
1366
1510
1836
1964
2094
2306
2518
2704
2890
2602
2466
2330
2170
2010
1314
978
644
394
142
16
-109
-123
72
268
272
274
342
390
436
484
532
608
570
530
542
552
562
570
576
576
574
570
566
560
556
552
548
544
540
536
528
526
522
522
520
518
520
520
522
524
528
530
536
540
544
550
554
566
574
580
588
594
610
620
630
642
652
664
676
702
716
730
746
790
806
822
836
852
866
882
908
920
934
944
956
976
984
992
998
1006
1018
1022
1028
1032
1038
1042
1046
1056
1060
1066
1070
1076
1090
1096
1102
1108
1116
1122
1130
1144
1150
1158
1164
1172
1184
1188
1192
1196
1200
1204
1204
1206
1204
1204
1202
1200
1192
1186
1180
1172
1164
1146
1134
1124
1112
1100
1086
1072
1040
1040
1040
1022
1004
966
944
924
902
880
834
810
786
762
738
714
688
638
614
590
568
546
506
496
486
472
458
448
436
418
410
402
396
390
382
380
376
374
372
370
368
368
368
368
370
370
374
378
382
386
390
400
408
414
422
430
440
448
468
480
490
502
512
532
542
552
562
570
578
586
600
604
608
612
614
614
614
612
610
606
598
594
588
582
574
568
560
544
538
530
524
516
504
498
492
488
484
482
480
480
482
484
488
492
504
512
520
532
542
566
580
592
608
622
636
650
680
694
706
718
730
750
758
764
770
776
778
782
782
780
778
774
770
758
750
742
732
722
700
690
678
666
652
640
628
602
590
576
564
550
524
512
500
488
476
466
454
432
424
414
406
398
384
380
376
374
370
370
370
374
378
382
388
394
408
418
428
438
448
470
482
492
504
516
526
536
556
566
576
584
590
604
610
616
620
624
628
632
640
644
646
650
652
658
662
666
672
676
688
696
704
712
720
732
742
764
776
790
804
818
848
864
880
894
910
924
940
968
980
994
1004
1014
1030
1036
1042
1044
1048
1050
1048
1046
1042
1040
1036
1032
1022
1016
1012
1006
1002
994
990
988
986
986
986
988
992
996
1000
1004
1010
1024
1032
1042
1052
1062
1086
1096
1106
1120
1136
1138
1140
1188
1186
1184
1224
1264
1216
1286
1358
1460
1564
1680
1796
2044
2156
2270
2354
2438
2796
2778
2762
2660
2560
2450
2342
1812
1518
1226
956
688
300
210
120
132
144
500
510
520
554
586
630
674
758
788
820
788
758
780
788
798
802
806
804
804
798
794
792
788
784
772
766
754
748
732
726
720
714
706
700
692
682
676
670
666
662
654
652
648
648
646
646
646
650
654
658
664
670
686
698
708
722
734
776
792
808
826
836
846
894
910
928
942
958
986
998
1010
1020
1032
1042
1052
1068
1074
1082
1088
1094
1104
1108
1114
1118
1124
1136
1140
1146
1150
1156
1160
1164
1172
1174
1178
1178
1180
1180
1176
1174
1168
1164
1156
1150
1130
1116
1104
1088
1074
1084
1062
1040
1016
992
966
940
888
862
836
810
784
732
708
682
656
628
576
564
552
526
498
466
434
360
320
280
240
200
168
144
118
98
76
58
40
34
24
12
2
-7
-21
-27
-35
-39
-45
-53
-55
-59
-61
-65
-67
-71
-75
-77
-79
-79
-81
-83
-83
-83
-81
-81
-79
-77
-71
-67
-63
-59
-55
-43
-37
-31
-23
-17
-1
6
12
20
26
34
40
54
60
64
68
72
80
82
84
84
84
84
84
80
78
76
74
70
64
62
58
56
52
48
46
44
42
40
40
38
38
38
38
40
40
42
44
46
50
52
56
60
72
80
86
94
102
124
136
148
162
176
192
206
240
256
272
288
304
334
348
362
372
382
396
400
404
404
404
402
398
384
376
366
354
342
316
304
290
276
262
250
238
214
206
196
190
182
174
172
170
172
174
182
190
196
206
214
226
236
264
280
296
312
328
336
358
380
402
424
444
464
494
506
518
528
536
550
554
556
556
556
552
548
542
536
530
524
516
500
492
484
478
472
460
458
454
452
450
450
450
452
456
458
462
466
476
480
484
488
492
498
500
502
502
502
502
500
496
492
488
484
480
470
464
458
454
448
444
438
430
428
424
422
420
418
418
416
418
418
418
418
420
422
422
422
420
420
418
416
414
412
406
404
402
400
396
394
392
384
384
382
386
390
392
402
410
404
396
372
346
410
464
516
476
434
636
776
916
1086
1258
1620
1882
2146
2356
2566
2678
2792
2740
2570
2402
2116
1830
1156
810
464
294
122
36
-49
-7
138
282
294
304
312
332
350
408
464
456
468
480
494
508
522
536
562
572
582
594
604
626
638
648
660
670
682
692
716
728
738
750
786
798
810
822
834
860
872
884
896
910
922
936
962
976
990
1004
1018
1048
1062
1078
1092
1108
1122
1138
1168
1182
1198
1212
1226
1254
1268
1282
1294
1308
1320
1332
1356
1368
1380
1392
1404
1430
1442
1456
1470
1484
1514
1530
1546
1546
1548
1566
1586
1628
1650
1672
1694
1716
1762
1778
1796
1810
1824
1834
1846
1864
1868
1874
1874
1876
1872
1866
1862
1852
1844
1822
1808
1796
1780
1764
1760
1756
1716
1696
1676
1656
1636
1594
1574
1554
1532
1510
1488
1466
1418
1392
1366
1352
1340
1280
1246
1214
1178
1142
1064
1024
984
944
904
864
824
752
718
682
652
620
610
588
566
546
526
512
498
472
462
450
440
430
414
410
404
400
396
392
392
390
392
392
396
398
404
408
412
416
418
426
428
430
432
434
434
432
430
426
422
416
410
394
386
376
366
354
344
332
310
298
286
276
266
248
240
232
226
220
210
206
202
200
198
196
194
192
192
190
190
188
186
184
182
182
180
178
176
174
174
174
176
176
182
186
190
196
202
216
226
234
244
252
262
272
292
300
308
316
322
332
336
338
338
338
336
334
326
320
314
308
302
288
282
274
270
264
256
254
250
250
248
250
250
254
258
262
266
270
280
286
290
296
300
306
310
318
322
326
330
332
338
342
346
350
354
364
372
378
386
392
402
410
430
442
452
464
476
500
512
524
538
550
562
572
592
602
610
618
626
636
642
646
648
650
652
654
654
652
650
648
646
642
640
636
634
630
624
622
620
618
616
616
616
616
620
622
626
630
642
650
658
668
676
688
698
722
734
746
758
770
796
806
818
828
838
856
862
870
874
880
884
888
890
890
892
890
890
888
886
886
884
884
884
884
886
888
892
896
902
916
924
934
944
954
980
974
968
988
1008
1032
1058
1110
1108
1108
1146
1186
1286
1348
1410
1430
1450
1554
1658
1892
2012
2134
2244
2354
2438
2648
2860
2884
2908
2780
2728
2678
2386
2096
1744
1392
662
482
302
228
152
270
432
592
604
616
650
682
794
828
808
788
792
800
808
812
816
816
816
808
804
802
796
792
778
770
762
754
746
728
720
710
702
692
686
678
666
662
658
658
656
656
660
664
670
674
682
690
712
724
736
748
788
802
816
830
846
872
884
898
908
920
930
942
960
968
976
984
992
1006
1012
1020
1028
1036
1044
1054
1076
1088
1100
1114
1128
1160
1156
1154
1174
1196
1244
1268
1294
1318
1344
1370
1396
1446
1468
1492
1512
1534
1554
1566
1580
1590
1600
1608
1616
1624
1624
1626
1622
1620
1612
1604
1598
1586
1574
1542
1546
1552
1530
1508
1508
1508
1440
1398
1358
1310
1264
1212
1144
1076
1004
932
862
792
668
616
564
546
528
446
410
374
342
310
282
252
200
176
150
130
110
60
38
14
-5
-27
-65
-77
-91
-105
-121
-133
-145
-165
-173
-181
-187
-195
-205
-209
-213
-215
-219
-221
-223
-225
-227
-229
-229
-231
-233
-235
-237
-239
-243
-251
-255
-259
-265
-271
-277
-283
-297
-303
-311
-319
-327
-341
-349
-357
-363
-369
-375
-381
-391
-395
-399
-401
-405
-409
-409
-411
-411
-411
-411
-409
-409
-407
-407
-405
-405
-403
-401
-401
-399
-399
-395
-393
-393
-391
-389
-385
-383
-375
-371
-367
-361
-357
-347
-341
-335
-329
-323
-313
-309
-305
-301
-297
-295
-293
-291
-291
-293
-295
-299
-307
-313
-319
-325
-333
-341
-349
-365
-375
-385
-393
-403
-419
-427
-435
-441
-449
-455
-463
-471
-475
-479
-481
-483
-485
-483
-483
-481
-479
-473
-469
-467
-461
-457
-451
-447
-435
-429
-425
-419
-413
-403
-397
-393
-389
-385
-381
-377
-371
-367
-365
-363
-361
-357
-355
-353
-351
-349
-345
-343
-341
-337
-335
-331
-329
-321
-317
-313
-307
-303
-293
-287
-283
-277
-273
-267
-263
-253
-247
-243
-239
-235
-225
-221
-217
-213
-209
-199
-193
-189
-183
-177
-169
-163
-149
-141
-133
-123
-115
-95
-85
-77
-67
-57
-47
-37
-17
-7
0
8
16
32
40
46
52
58
68
74
78
82
86
90
92
96
98
100
102
102
104
104
104
106
106
108
108
112
114
114
112
108
124
134
144
138
130
152
172
118
78
36
178
320
360
478
594
742
888
1002
1306
1612
1788
1966
2258
2550
2968
3006
3044
2888
2732
2160
1798
1436
1144
852
682
510
400
418
434
462
490
452
460
466
466
464
474
478
482
486
488
494
498
508
514
520
528
534
546
554
562
570
576
584
592
608
616
624
634
642
658
668
676
686
696
718
730
740
752
764
778
792
822
838
854
854
856
896
916
938
960
982
1004
1028
1074
1096
1120
1140
1162
1190
1204
1220
1232
1246
1270
1280
1290
1298
1306
1314
1322
1338
1346
1354
1362
1370
1388
1398
1410
1422
1434
1448
1462
1494
1490
1488
1508
1530
1576
1600
1626
1652
1680
1702
1726
1790
1822
1854
1878
1904
1928
1942
1956
1966
1976
1988
1988
1990
1986
1982
1972
1962
2006
1984
1964
1938
1912
1880
1840
1802
1760
1718
1674
1632
1546
1500
1456
1410
1364
1272
1226
1180
1134
1088
1002
962
922
884
848
816
784
728
724
718
698
676
662
652
640
632
624
620
614
608
608
608
610
610
618
624
628
636
642
656
666
674
682
690
698
706
718
724
730
734
738
744
744
744
742
738
734
730
716
708
700
692
682
660
650
640
630
618
600
592
584
578
572
568
564
562
562
562
566
568
576
582
586
594
600
608
616
632
640
648
658
666
682
692
700
708
716
726
734
754
762
772
782
792
816
828
840
852
864
892
904
918
930
944
956
970
994
1006
1018
1028
1038
1056
1062
1070
1074
1080
1084
1088
1094
1094
1096
1096
1096
1096
1094
1092
1090
1090
1086
1084
1082
1080
1078
1076
1074
1072
1070
1068
1066
1066
1064
1064
1064
1062
1062
1062
1062
1064
1066
1068
1070
1072
1080
1084
1088
1094
1100
1114
1120
1128
1136
1144
1150
1158
1172
1178
1184
1188
1192
1196
1194
1194
1190
1188
1182
1178
1162
1152
1142
1130
1118
1094
1080
1068
1054
1042
1016
1004
994
982
972
962
954
940
932
926
920
916
908
902
898
894
890
886
882
872
866
862
856
850
836
828
822
814
806
796
788
770
762
754
744
734
716
706
696
688
678
658
648
638
628
618
608
598
580
570
560
552
542
526
520
512
508
504
502
498
494
496
496
504
510
536
524
510
530
550
508
548
588
642
696
826
888
988
1088
1200
1312
1534
1596
1658
1882
2106
2154
2202
2080
2042
2006
1644
1282
414
34
-345
-553
-761
-755
-589
-423
-205
12
170
326
236
188
138
172
204
168
164
158
146
134
126
118
106
98
90
82
74
56
48
38
30
22
2
-7
-17
-27
-39
-49
-61
-85
-97
-111
-123
-135
-161
-173
-185
-195
-205
-213
-221
-233
-235
-239
-239
-239
-233
-225
-219
-209
-201
-189
-177
-151
-137
-123
-109
-95
-67
-53
-41
-29
-19
0
8
16
22
28
34
38
46
50
54
58
62
72
78
82
90
98
108
116
138
152
166
182
196
190
210
230
252
274
324
352
378
392
404
436
466
536
574
612
654
696
780
822
864
874
886
884
884
908
912
918
916
914
892
914
938
954
972
892
844
796
758
718
656
594
464
400
334
272
210
160
118
76
40
4
-25
-55
-55
-65
-75
-87
-101
-121
-127
-133
-135
-139
-143
-143
-143
-141
-141
-137
-135
-125
-119
-115
-109
-103
-91
-83
-77
-69
-61
-51
-43
-23
-13
-3
8
20
46
60
74
88
102
118
132
164
178
192
206
220
246
256
266
274
282
294
298
300
302
302
300
298
290
286
280
274
268
256
250
242
238
232
228
224
218
218
216
218
218
222
228
232
238
244
260
270
280
290
300
312
324
350
364
376
390
402
430
444
458
472
486
500
512
536
548
560
570
580
598
606
612
618
624
630
632
634
634
632
630
628
618
612
604
596
588
568
558
548
536
524
514
502
480
470
460
452
442
430
426
420
418
416
418
422
424
430
436
444
450
470
482
492
504
516
542
556
568
582
596
610
622
648
660
672
684
696
720
732
744
756
766
776
788
812
824
836
848
860
882
894
906
916
928
948
958
968
976
984
992
1000
1010
1014
1020
1022
1026
1028
1028
1028
1026
1024
1022
1020
1014
1010
1006
1002
998
992
988
986
984
982
982
984
986
990
994
1000
1008
1026
1036
1048
1062
1076
1106
1122
1138
1154
1170
1186
1204
1236
1252
1268
1282
1296
1324
1336
1350
1358
1368
1388
1400
1412
1422
1434
1434
1436
1470
1442
1416
1450
1486
1588
1578
1570
1678
1788
1914
2040
2282
2374
2466
2518
2572
2894
2770
2648
2510
2374
1670
1272
874
554
234
8
-217
-381
-329
-277
-135
6
332
404
474
542
608
600
590
616
640
664
650
636
648
648
646
644
642
638
632
616
606
596
584
572
544
530
516
500
484
454
440
424
410
394
382
370
346
338
328
322
314
304
302
298
298
298
300
302
312
320
326
336
344
368
382
396
412
428
422
444
464
486
508
532
556
606
632
658
684
710
762
788
814
840
866
890
916
964
986
1010
1030
1050
1070
1084
1098
1108
1118
1136
1142
1150
1154
1160
1164
1168
1174
1176
1180
1182
1184
1188
1190
1192
1194
1196
1198
1200
1204
1204
1206
1204
1204
1202
1198
1194
1188
1184
1168
1158
1150
1138
1128
1116
1104
1080
1066
1054
1042
1030
1008
998
988
980
972
966
962
956
954
954
954
956
964
970
976
982
990
998
1008
1026
1036
1046
1056
1066
1086
1094
1104
1112
1122
1138
1144
1152
1158
1166
1172
1178
1190
1194
1200
1204
1210
1222
1228
1236
1242
1250
1258
1268
1288
1300
1312
1324
1338
1368
1384
1402
1404
1406
1448
1470
1492
1514
1538
1558
1578
1610
1624
1638
1648
1660
1678
1684
1690
1692
1696
1696
1696
1692
1688
1684
1678
1674
1660
1652
1644
1636
1630
1614
1608
1602
1596
1590
1586
1582
1576
1574
1574
1574
1576
1580
1584
1588
1592
1598
1604
1612
1630
1640
1650
1660
1672
1696
1708
1722
1736
1750
1778
1790
1804
1816
1830
1842
1854
1876
1884
1892
1898
1906
1912
1914
1916
1914
1912
1908
1904
1892
1884
1876
1866
1856
1832
1820
1808
1794
1780
1766
1752
1724
1710
1696
1680
1666
1638
1622
1608
1594
1580
1552
1538
1526
1514
1502
1490
1478
1458
1448
1440
1432
1424
1412
1408
1404
1400
1398
1396
1396
1398
1400
1402
1404
1408
1418
1422
1428
1432
1438
1450
1456
1462
1466
1472
1476
1482
1490
1494
1498
1500
1502
1502
1502
1502
1500
1498
1494
1490
1480
1474
1468
1460
1452
1434
1424
1414
1402
1390
1364
1350
1336
1320
1304
1288
1272
1238
1220
1204
1188
1172
1140
1126
1112
1100
1088
1078
1070
1060
1056
1054
1056
1058
1070
1080
1090
1104
1118
1098
1120
1142
1166
1192
1218
1246
1304
1336
1368
1398
1428
1458
1490
1524
1568
1612
1668
1724
1732
1826
1922
2040
2158
2418
2564
2710
2828
2946
3032
3118
3678
3592
3508
3408
3308
3110
2748
2388
1962
1538
848
612
374
298
220
284
346
714
802
892
924
958
1054
1080
1106
1126
1146
1172
1198
1214
1234
1254
1266
1278
1300
1310
1320
1326
1334
1346
1348
1352
1352
1352
1350
1350
1342
1336
1330
1322
1314
1294
1282
1272
1258
1246
1232
1220
1194
1180
1168
1154
1142
1118
1106
1096
1086
1076
1060
1052
1046
1040
1036
1032
1028
1024
1024
1024
1024
1024
1028
1030
1032
1036
1040
1044
1050
1060
1066
1072
1078
1086
1100
1106
1114
1120
1126
1140
1146
1152
1156
1162
1166
1170
1176
1178
1182
1182
1184
1184
1182
1182
1180
1178
1174
1172
1164
1158
1152
1144
1136
1118
1106
1096
1084
1072
1058
1044
1054
1034
1016
992
970
918
912
906
870
834
754
710
666
620
572
526
478
386
344
302
264
226
162
138
112
112
110
88
66
28
10
-7
-27
-47
-75
-89
-105
-119
-133
-159
-169
-181
-191
-203
-213
-223
-239
-245
-253
-257
-263
-273
-275
-279
-279
-281
-281
-283
-281
-279
-277
-273
-269
-261
-255
-249
-241
-233
-217
-207
-197
-185
-173
-159
-147
-119
-103
-89
-71
-55
-47
-27
-9
10
30
50
70
112
134
154
170
184
210
222
232
240
248
260
264
268
270
270
270
268
262
258
254
250
244
232
226
220
216
210
206
200
192
190
186
184
180
178
178
176
178
178
178
178
180
180
180
182
182
184
184
184
184
184
184
184
182
182
182
182
182
180
180
180
180
180
182
182
182
182
182
182
182
182
182
182
182
180
178
176
174
172
168
162
158
154
152
148
144
140
132
128
124
122
118
114
112
110
110
110
110
110
114
118
120
124
128
140
148
154
164
172
194
208
220
234
248
264
280
278
300
320
342
364
410
434
456
478
500
514
528
556
568
578
588
596
610
614
616
618
620
618
616
612
608
604
600
594
580
574
566
560
552
538
530
522
514
506
498
490
474
466
456
448
438
420
412
402
394
384
376
366
350
342
334
328
322
314
312
310
312
312
320
328
336
346
356
372
386
360
382
404
432
460
526
544
560
600
638
682
726
828
888
948
962
976
1134
1242
1350
1470
1592
1834
1932
2030
2254
2478
2530
2582
2424
2354
2286
1852
1418
472
96
-281
-471
-663
-661
-661
-423
-315
-209
-89
28
18
50
82
114
146
262
294
324
338
352
380
406
454
476
498
504
510
532
542
552
560
566
572
576
580
580
578
578
576
568
564
558
552
546
534
528
520
514
506
500
492
478
472
466
462
456
450
448
446
446
444
446
446
454
460
464
472
480
500
512
524
538
552
568
584
580
600
620
642
664
712
736
786
814
868
892
916
946
976
1000
1026
1072
1078
1086
1098
1110
1130
1136
1144
1146
1150
1150
1152
1150
1146
1144
1138
1134
1120
1112
1106
1096
1088
1066
1056
1048
1036
1024
1008
994
998
980
964
942
920
932
894
858
812
768
738
706
580
512
444
374
304
240
200
158
126
92
128
120
112
102
90
82
74
66
64
62
58
52
46
42
38
34
28
24
18
4
-3
-11
-19
-27
-47
-55
-65
-73
-83
-99
-105
-113
-117
-123
-125
-127
-127
-125
-123
-119
-115
-101
-93
-85
-75
-65
-53
-43
-19
-7
2
14
26
50
62
74
86
98
110
120
142
154
164
174
184
204
214
222
232
240
256
264
270
276
282
286
290
298
300
302
304
306
306
306
304
304
302
300
298
292
288
284
282
278
268
264
260
256
252
242
238
234
232
228
226
224
224
226
226
230
232
242
250
258
268
278
290
302
330
346
360
378
394
406
428
448
470
490
534
550
566
580
594
606
618
640
648
654
660
666
672
674
674
672
670
668
664
654
650
644
638
632
620
614
608
604
600
592
590
588
588
588
590
592
598
604
610
618
624
642
652
662
674
686
700
712
740
754
768
784
800
830
846
862
876
890
904
920
946
958
970
980
990
1006
1012
1020
1024
1030
1036
1036
1038
1038
1038
1036
1036
1032
1028
1026
1022
1020
1014
1010
1006
1002
998
994
990
982
976
972
968
964
956
952
948
944
940
932
930
928
926
924
922
922
924
926
928
930
934
944
950
956
962
968
974
982
996
1004
1012
1018
1026
1040
1048
1056
1064
1072
1088
1094
1100
1108
1116
1128
1140
1132
1148
1166
1184
1202
1158
1194
1230
1280
1332
1396
1462
1474
1590
1708
1834
1960
2218
2328
2438
2692
2946
3030
2942
2856
2746
2638
2276
1916
1050
728
404
168
-69
-283
-273
-265
-107
50
42
32
62
80
98
148
196
246
248
248
266
282
298
314
344
356
368
378
386
406
416
424
432
438
450
456
460
464
466
470
472
474
474
474
474
474
472
470
468
466
462
460
458
452
450
448
446
444
442
442
440
442
442
446
448
450
456
460
466
472
486
494
502
512
522
542
554
566
578
590
602
614
640
654
668
682
694
722
736
750
762
776
802
816
830
842
854
866
878
900
910
920
928
936
948
952
956
958
960
958
958
954
948
942
934
928
910
898
886
872
860
830
812
796
792
790
770
750
710
690
668
648
626
586
568
550
532
514
498
482
452
438
422
408
394
368
354
340
328
316
304
292
268
258
248
238
228
212
206
200
196
192
186
186
186
188
190
194
198
208
216
224
232
240
260
272
282
294
304
316
326
350
362
374
386
398
422
436
448
462
474
500
514
528
544
558
572
586
614
628
642
656
668
692
704
714
724
732
740
746
754
756
758
758
758
752
