11250
11299
11325
11307
11258
11216
11210
11233
11251
11241
11220
11226
11275
11338
11359
11310
11220
11150
11140
11182
11227
11239
11220
11202
11206
11228
11240
11222
11182
11149
11149
11194
11266
11335
11367
11344
11274
11192
11144
11153
11210
11275
11304
11285
11238
11209
11228
11289
11354
11373
11330
11253
11193
11186
11223
11263
11270
11247
11224
11223
11234
11233
11210
11186
11188
11216
11236
11218
11168
11130
11150
11226
11317
11370
11362
11312
11255
11218
11210
11216
11219
11205
11177
11150
11143
11156
11167
11158
11133
11123
11154
11218
11274
11288
11265
11234
11218
11209
11188
11155
11136
11156
11201
11235
11235
11212
11199
11212
11239
11261
11273
11279
11272
11231
11156
11084
11065
11111
11173
11188
11142
11088
11089
11153
11224
11246
11216
11183
11182
11202
11209
11189
11171
11183
11217
11238
11226
11200
11193
11211
11230
11225
11203
11191
11201
11216
11211
11191
11178
11186
11197
11183
11138
11094
11085
11115
11159
11192
11214
11233
11245
11227
11168
11085
11020
11005
11041
11103
11159
11193
11200
11187
11170
11165
11180
11205
11221
11222
11219
11225
11231
11218
11182
11147
11142
11165
11177
11148
11095
11075
11124
11213
11268
11247
11179
11132
11144
11186
11206
11186
11156
11158
11199
11247
11271
11269
11253
11233
11207
11184
11185
11222
11278
11317
11313
11280
11248
11231
11214
11186
11158
11158
11188
11212
11187
11113
11040
11024
11072
11141
11178
11169
11142
11133
11152
11181
11201
11203
11188
11157
11116
11075
11051
11054
11076
11100
11113
11114
11113
11113
11116
11122
11134
11158
11187
11205
11195
11152
11091
11044
11038
11083
11160
11232
11272
11286
11304
11355
11445
11558
11678
11808
11952
12097
12204
12235
12187
12089
11972
11838
11671
11470
11266
11108
11014
10969
10939
10912
10899
10912
10942
10971
10996
11031
11088
11154
11193
11184
11139
11093
11072
11079
11101
11128
11159
11189
11207
11199
11170
11141
11132
11153
11190
11222
11230
11208
11165
11124
11111
11133
11172
11194
11178
11135
11102
11106
11140
11173
11178
11153
11119
11097
11098
11121
11157
11197
11224
11229
11218
11205
11202
11201
11186
11156
11131
11140
11186
11236
11254
11231
11191
11166
11159
11150
11123
11093
11093
11142
11221
11287
11307
11279
11233
11207
11223
11275
11330
11348
11310
11237
11180
11180
11239
11317
11372
11390
11393
11405
11428
11443
11435
11409
11384
11370
11367
11369
11381
11409
11446
11471
11469
11445
11420
11408
11405
11401
11401
11427
11485
11552
11587
11568
11515
11471
11463
11482
11499
11498
11490
11492
11504
11501
11462
11389
11306
11243
11218
11227
11253
11278
11287
11279
11265
11252
11236
11204
11150
11095
11076
11114
11184
11235
11231
11185
11142
11133
11143
11137
11103
11073
11089
11152
11216
11226
11170
11088
11031
11021
11045
11080
11114
11142
11157
11148
11118
11087
11079
11093
11108
11105
11089
11085
11107
11144
11171
11173
11159
11145
11133
11109
11064
11006
10959
10949
10984
11057
11142
11205
11219
11182
11120
11076
11071
11096
11117
11119
11113
11119
11141
11158
11151
11124
11096
11080
11066
11044
11026
11039
11096
11170
11213
11197
11141
11090
11074
11091
11123
11153
11174
11173
11134
11060
10987
10963
11006
11086
11151
11171
11159
11144
11137
11126
11100
11071
11061
11075
11090
11076
11031
10980
10958
10978
11029
11086
11129
11148
11146
11138
11143
11167
11190
11181
11125
11046
10995
11003
11056
11108
11120
11093
11053
11023
11009
11001
10995
10995
11006
11028
11054
11080
11101
11109
11094
11057
11021
11012
11036
11074
11097
11098
11091
11092
11099
11093
11062
11024
11010
11030
11062
11062
11007
10919
10852
10850
10917
11013
11086
11108
11089
11063
11055
11064
11071
11063
11045
11030
11022
11009
10983
10962
10973
11031
11111
11163
11155
11095
11026
10979
10957
10941
10924
10918
10938
10981
11027
11057
11069
11074
11079
11080
11071
11052
11033
11017
11003
10986
10972
10971
10993
11033
11074
11095
11082
11036
10978
10944
10959
11020
11089
11123
11105
11056
11014
10998
10992
10967
10911
10843
10796
10793
10836
10910
10987
11039
11043
11005
10955
10935
10965
11027
11083
11108
11107
11102
11104
11105
11093
11066
11037
11020
11024
11046
11074
11092
11080
11031
10962
10914
10917
10965
11016
11030
11007
10976
10960
10951
10933
10908
10903
10935
10978
10988
10945
10884
10859
10884
10921
10917
10870
10827
10834
10885
10929
10929
10901
10892
10928
10983
11016
11015
11005
11014
11041
11055
11036
11000
10979
10985
11000
11004
11007
11049
11160
11322
11474
11557
11567
11556
11584
11673
11788
11872
11888
11841
11754
11642
11500
11321
11125
10951
10834
10778
10755
10736
10716
10712
10741
10797
10858
10903
10924
10926
10916
10905
10907
10934
10983
11028
11037
11004
10952
10921
10929
10962
10989
10993
10984
10979
10983
10981
10960
10929
10912
10929
10970
11000
10990
10937
10871
10835
10850
10901
10953
10971
10949
10907
10872
10855
10850
10852
10870
10918
10992
11058
11070
11012
10916
10843
10840
10899
10975
11023
11035
11036
11053
11086
11106
11087
11028
10957
10911
10906
10932
10966
10989
10999
11002
11008
11017
11026
11033
11038
11045
11062
11091
11128
11162
11178
11165
11127
11085
11064
11075
11110
11145
11163
11163
11158
11162
11179
11206
11235
11257
11262
11250
11231
11225
11246
11289
11326
11331
11301
11258
11234
11241
11273
11310
11333
11334
11311
11270
11228
11207
11215
11238
11246
11221
11178
11152
11166
11203
11227
11213
11170
11127
11101
11080
11045
10997
10959
10951
10967
10981
10970
10939
10917
10929
10976
11034
11071
11066
11016
10940
10863
10814
10807
10838
10888
10940
10986
11027
11059
11068
11035
10956
10854
10768
10732
10758
10828
10911
10970
10987
10961
10909
10861
10842
10860
10903
10941
10955
10942
10920
10908
10915
10934
10953
10970
10987
11001
10996
10956
10888
10828
10818
10869
10947
10998
10992
10949
10917
10929
10975
11015
11021
10996
10969
10960
10966
10975
10980
10992
11017
11046
11057
11036
10995
10961
10958
10982
11008
11015
11002
10982
10974
10984
11011
11048
11083
11101
11083
11027
10949
10884
10853
10852
10849
10823
10784
10769
10805
10881
10958
11003
11018
11031
11061
11100
11118
11100
11056
11014
10993
10990
10991
10983
10957
10918
10875
10852
10868
10926
10995
11032
11017
10973
10943
10946
10963
10960
10924
10882
10864
10872
10877
10862
10839
10844
10890
10950
10980
10959
10911
10869
10850
10845
10844
10852
10882
10932
10978
10991
10965
10920
10876
10844
10821
10812
10827
10868
10917
10943
10923
10867
10807
10775
10780
10806
10831
10847
10864
10895
10938
10971
10967
10919
10848
10792
10770
10772
10774
10764
10760
10785
10834
10868
10849
10776
10695
10659
10686
10754
10826
10881
10917
10934
10924
10884
10828
10792
10800
10840
10878
10884
10859
10832
10827
10843
10860
10852
10816
10765
10724
10711
10734
10785
10844
10885
10892
10859
10798
10731
10682
10664
10677
10705
10734
10759
10784
10811
10831
10830
10812
10802
10825
10874
10911
10895
10827
10757
10742
10790
10859
10894
10878
10838
10812
10812
10827
10840
10853
10872
10890
10892
10868
10827
10793
10776
10775
10784
10799
10818
10829
10816
10776
10729
10705
10717
10750
10779
10793
10793
10781
10745
10686
10627
10611
10663
10760
10848
10878
10843
10775
10711
10674
10664
10676
10698
10717
10717
10702
10690
10699
10729
10760
10770
10753
10727
10704
10692
10695
10725
10791
10882
10967
11023
11064
11130
11247
11396
11525
11602
11640
11674
11716
11740
11707
11606
11462
11302
11132
10947
10753
10584
10468
10412
10397
10407
10442
10503
10573
10618
10624
10613
10624
10679
10756
10815
10831
10810
10771
10729
10685
10644
10622
10628
10653
10673
10669
10646
10623
10617
10631
10663
10704
10748
10778
10779
10750
10713
10695
10705
10727
10733
10708
10660
10608
10572
10566
10598
10663
10740
10791
10788
10740
10686
10664
10680
10703
10703
10675
10645
10637
10651
10669
10681
10693
10719
10757
10790
10798
10776
10738
10706
10699
10725
10780
10842
10875
10851
10772
10683
10639
10667
10740
10810
10839
10829
10802
10774
10747
10727
10731
10773
10846
10911
10932
10907
10868
10845
10843
10845
10844
10855
10896
10956
10998
10993
10952
10917
10925
10970
11015
11031
11018
10998
10987
10984
10981
10973
10967
10967
10969
10971
10973
10975
10973
10962
10949
10949
10971
10996
10991
10940
10867
10809
10786
10777
10753
10710
10679
10684
10710
10720
10697
10671
10677
10715
10737
10703
10631
10582
10602
10669
10717
10703
10645
10601
10601
10630
10652
10654
10657
10678
10706
10708
10669
10608
10559
10543
10556
10583
10616
10651
10676
10676
10642
10585
10533
10509
10517
10541
10559
10565
10565
10580
10620
10677
10717
10711
10656
10586
10543
10544
10565
10574
10566
10569
10607
10666
10699
10673
10602
10538
10520
10541
10567
10577
10584
10614
10672
10731
10759
10747
10710
10665
10621
10575
10531
10503
10503
10532
10579
10621
10638
10622
10583
10550
10556
10605
10669
10702
10682
10629
10588
10581
10598
10610
10603
10591
10591
10603
10614
10612
10603
10600
10601
10597
10579
10557
10545
10552
10573
10599
10621
10630
10612
10556
10474
10405
10391
10437
10513
10576
10612
10637
10669
10700
10704
10671
10619
10581
10570
10566
10543
10499
10459
10453
10488
10542
10588
10612
10614
10601
10583
10570
10576
10601
10631
10641
10613
10552
10486
10447
10451
10488
10533
10566
10580
10578
10565
10543
10510
10478
10464
10479
10515
10545
10548
10528
10515
10531
10570
10605
10615
10608
10605
10612
10605
10558
10481
10417
10409
10456
10513
10533
10510
10476
10467
10490
10523
10546
10560
10575
10596
10606
10586
10536
10480
10450
10464
10517
10581
10628
10641
10625
10598
10579
10570
10566
10559
10550
10548
10554
10562
10565
10561
10558
10562
10565
10557
10534
10506
10493
10506
10542
10589
10631
10651
10638
10592
10536
10501
10511
10559
10614
10646
10645
10626
10602
10576
10550
10536
10548
10589
10630
10637
10598
10537
10493
10489
10513
10540
10555
10565
10577
10590
10591
10573
10537
10497
10467
10456
10470
10501
10533
10549
10544
10531
10531
10546
10556
10542
10507
10478
10481
10513
10543
10543
10511
10468
10437
10428
10434
10447
10463
10478
10486
10483
10476
10474
10482
10498
10526
10585
10688
10830
10976
11087
11154
11205
11278
11377
11471
11516
11493
11411
11291
11145
10979
10808
10654
10535
10445
10360
10267
10181
10137
10166
10266
10400
10517
10576
10569
10520
10469
10450
10472
10513
10544
10544
10516
10476
10437
10401
10375
10369
10399
10461
10529
10568
10559
10514
10471
10459
10486
10535
10577
10590
10571
10532
10496
10485
10505
10541
10560
10538
10480
10423
10406
10441
10502
10544
10541
10505
10472
10469
10490
10510
10514
10514
10533
10578
10625
10638
10598
10526
10467
10448
10468
10501
10524
10535
10544
10560
10577
10587
10590
10593
10603
10618
10629
10628
10616
10602
10597
10609
10643
10690
10731
10745
10724
10681
10644
10639
10668
10715
10758
10787
10799
10796
10779
10753
10733
10734
10758
10790
10812
10817
10816
10821
10834
10846
10854
10866
10886
10906
10906
10877
10836
10819
10843
10887
10906
10874
10808
10751
10734
10750
10771
10779
10780
10782
10778
10743
10673
10601
10573
10610
10678
10720
10707
10658
10617
10605
10600
10571
10519
10478
10484
10533
10583
10598
10576
10545
10527
10513
10478
10416
10353
10324
10343
10393
10443
10474
10480
10464
10429
10387
10360
10369
10421
10493
10557
10594
10603
10592
10569
10535
10503
10487
10492
10506
10509
10496
10480
10479
10488
10486
10464
10445
10459
10509
10556
10553
10494
10424
10400
10431
10475
10484
10457
10434
10452
10501
10535
10520
10466
10415
10399
10419
10456
10496
10533
10560
10562
10531
10478
10431
10412
10421
10443
10470
10502
10535
10550
10526
10467
10409
10393
10431
10493
10539
10549
10532
10510
10490
10469
10446
10432
10438
10457
10472
10469
10453
10443
10450
10465
10470
10455
10428
10410
10413
10434
10460
10475
10473
10462
10454
10458
10464
10457
10427
10382
10347
10343
10370
10409
10435
10438
10425
10411
10407
10419
10444
10470
10485
10474
10440
10403
10388
10410
10458
10507
10536
10535
10508
10467
10430
10410
10416
10440
10461
10458
10430
10395
10377
10384
10405
10425
10438
10442
10438
10426
10407
10391
10386
10390
10391
10384
10377
10386
10412
10438
10441
10420
10398
10393
10405
10414
10406
10386
10374
10381
10399
10417
10432
10454
10477
10484
10454
10396
10346
10336
10369
10411
10429
10419
10408
10426
10473
10517
10523
10483
10421
10379
10381
10417
10457
10470
10447
10408
10380
10379
10403
10437
10464
10472
10458
10425
10383
10353
10349
10371
10402
10422
10424
10420
10427
10450
10477
10495
10496
10483
10465
10450
10444
10453
10471
10481
10467
10428
10384
10361
10369
10398
10427
10448
10461
10464
10448
10410
10366
10350
10380
10433
10462
10437
10376
10327
10324
10353
10372
10352
10309
10283
10305
10370
10441
10481
10477
10440
10396
10365
10357
10366
10383
10399
10413
10425
10431
10422
10395
10358
10332
10333
10365
10415
10467
10507
10533
10550
10574
10623
10706
10815
10926
11016
11089
11165
11258
11350
11399
11367
11250
11079
10893
10714
10550
10407
10293
10213
10163
10131
10120
10140
10194
10262
10310
10320
10307
10310
10351
10418
10468
10473
10432
10375
10331
10316
10328
10356
10386
10407
10408
10389
10362
10345
10350
10372
10392
10385
10345
10286
10238
10229
10262
10318
10366
10388
10387
10377
10370
10370
10376
10390
10417
10451
10478
10484
10471
10452
10440
10439
10440
10438
10437
10443
10453
10459
10455
10444
10432
10423
10416
10415
10431
10465
10502
10515
10492
10453
10435
10460
10513
10554
10552
10514
10473
10455
10465
10488
10503
10500
10476
10442
10417
10423
10468
10535
10588
10599
10574
10549
10564
10627
10713
10783
10809
10790
10742
10693
10666
10668
10692
10716
10721
10705
10680
10663
10658
10664
10681
10717
10778
10852
10906
10906
10845
10752
10674
10645
10664
10703
10730
10729
10708
10682
10660
10642
10620
10596
10578
10573
10579
10582
10569
10535
10490
10446
10415
10404
10419
10456
10497
10515
10491
10435
10389
10389
10434
10476
10463
10386
10292
10245
10278
10364
10444
10474
10452
10405
10365
10343
10339
10349
10376
10417
10456
10465
10425
10348
10274
10251
10292
10365
10417
10413
10370
10333
10337
10371
10399
10396
10372
10355
10356
10360
10351
10339
10351
10401
10461
10486
10453
10385
10332
10327
10366
10423
10470
10494
10485
10440
10369
10309
10294
10331
10387
10417
10409
10389
10388
10403
10404
10374
10337
10340
10396
10466
10483
10426
10334
10275
10279
10315
10332
10312
10286
10295
10344
10398
10418
10398
10369
10363
10377
10384
10361
10317
10288
10301
10352
10407
10432
10414
10368
10317
10283
10275
10299
10348
10410
10461
10481
10461
10409
10346
10297
10279
10300
10348
10395
10410
10379
10315
10254
10229
10246
10285
10322
10349
10373
10398
10414
10405
10374
10345
10350
10388
10429
10429
10372
10285
10218
10206
10247
10308
10351
10359
10340
10320
10314
10321
10325
10315
10299
10293
10306
10328
10340
10336
10331
10350
10398
10447
10460
10427
10371
10329
10315
10313
10298
10266
10235
10224
10238
10268
10304
10347
10392
10425
10427
10393
10343
10304
10288
10287
10284
10276
10274
10288
10316
10342
10357
10362
10367
10375
10380
10370
10341
10301
10267
10253
10264
10290
10311
10314
10306
10309
10342
10393
10426
10408
10345
10277
10249
10270
10313
10348
10363
10369
10369
10357
10329
10302
10306
10351
10406
10430
10410
10376
10360
10363
10351
10309
10266
10278
10362
10461
10495
10431
10322
10256
10272
10334
10370
10349
10297
10261
10253
10253
10244
10238
10259
10310
10361
10376
10349
10309
10283
10275
10267
10255
10257
10289
10344
10388
10394
10370
10343
10335
10340
10334
10310
10280
10268
10281
10304
10319
10320
10314
10305
10289
10262
10235
10225
10245
10295
10359
10433
10522
10633
10762
10883
10975
11039
11100
11188
11304
11414
11462
11402
11231
10985
10726
10510
10362
10271
10205
10140
10077
10039
10049
10108
10189
10255
10285
10280
10258
10234
10216
10207
10215
10249
10307
10372
10418
10423
10382
10306
10224
10166
10158
10200
10269
10325
10345
10336
10325
10334
10356
10364
10342
10304
10287
10309
10352
10378
10367
10335
10317
10328
10355
10367
10354
10332
10325
10340
10363
10371
10355
10326
10300
10288
10294
10318
10353
10388
10411
10413
10392
10357
10317
10288
10280
10295
10323
10345
10347
10334
10327
10342
10377
10411
10424
10417
10405
10398
10394
10386
10381
10398
10448
10515
10563
10565
10530
10498
10500
10536
10569
10564
10516
10455
10422
10436
10485
10542
10586
10613
10628
10637
10637
10625
10609
10605
10626
10665
10699
10707
10688
10658
10635
10626
10624
10624
10635
10663
10697
10710
10683
10626
10575
10560
10579
10602
10599
10566
10524
10496
10486
10483
10478
10469
10458
10442
10416
10385
10361
10358
10376
10404
10426
10431
10418
10390
10358
10335
10335
10353
10372
10368
10339
10304
10291
10304
10324
10327
10306
10278
10265
10272
10292
10312
10329
10343
10350
10344
10326
10307
10299
10305
10318
10333
10351
10369
10376
10354
10300
10242
10219
10244
10293
10322
10314
10290
10285
10306
10323
10303
10252
10211
10219
10271
10323
10336
10305
10264
10240
10235
10233
10231
10242
10281
10334
10365
10345
10288
10241
10248
10311
10388
10429
10413
10364
10321
10308
10319
10329
10324
10315
10320
10350
10391
10414
10399
10357
10317
10303
10313
10321
10306
10274
10253
10271
10328
10394
10429
10412
10352
10279
10228
10216
10233
10255
10259
10241
10216
10208
10225
10255
10280
10291
10297
10307
10320
10324
10316
10306
10305
10310
10304
10278
10248
10240
10260
10283
10276
10232
10187
10184
10231
10291
10319
10303
10271
10257
10275
10311
10348
10373
10380
10359
10305
10231
10174
10167
10215
10285
10336
10346
10321
10283
10247
10223
10216
10230
10261
10296
10320
10325
10309
10277
10241
10214
10213
10239
10277
10302
10303
10299
10313
10348
10377
10372
10332
10289
10270
10271
10263
10235
10207
10214
10259
10309
10319
10286
10245
10235
10260
10292
10304
10295
10280
10271
10266
10258
10252
10257
10272
10284
10281
10266
10254
10256
10271
10290
10314
10344
10373
10382
10352
10293
10239
10230
10277
10352
10410
10417
10372
10303
10246
10221
10227
10248
10271
10296
10329
10368
10396
10395
10367
10334
10325
10344
10367
10368
10342
10310
10291
10288
10286
10282
10290
10320
10362
10391
10391
10369
10339
10302
10249
10185
10145
10168
10254
10344
10367
10304
10203
10142
10153
10207
10252
10262
10254
10254
10260
10245
10197
10141
10123
10168
10259
10345
10384
10365
10308
10246
10197
10168
10161
10177
10216
10274
10342
10409
10474
10545
10633
10736
10840
10932
11017
11111
11218
11311
11341
11271
11113
10922
10753
10621
10503
10368
10218
10087
10017
10019
10069
10131
10181
10214
10235
10248
10252
10245
10232
10216
10198
10178
10159
10157
10188
10251
10320
10359
10343
10287
10226
10193
10190
10198
10205
10220
10258
10314
10352
10345
10297
10250
10242
10274
10313
10334
10340
10350
10365
10358
10314
10251
10217
10242
10306
10362
10376
10357
10335
10330
10334
10334
10329
10322
10309
10281
10243
10223
10253
10329
10408
10440
10406
10333
10261
10217
10212
10252
10332
10422
10473
10449
10368
10298
10298
10366
10442
10469
10440
10396
10376
10382
10391
10396
10414
10460
10520
10555
10537
10482
10427
10405
10419
10455
10498
10543
10584
10615
10629
10628
10621
10615
10615
10626
10650
10679
10690
10662
10602
10547
10541
10595
10675
10735
10745
10714
10665
10617
10577
10552
10547
10559
10572
10566
10543
10520
10517
10532
10544
10534
10508
10479
10454
10426
10389
10356
10349
10371
10401
10407
10375
10324
10281
10261
10262
10273
10292
10317
10334
10325
10284
10231
10197
10201
10232
10264
10278
10278
10272
10264
10248
10221
10195
10191
10217
10259
10294
10306
10297
10276
10256
10239
10225
10219
10227
10250
10279
10301
10309
10305
10296
10285
10273
10257
10244
10241
10255
10281
10308
10323
10320
10301
10274
10250
10243
10256
10285
10315
10334
10343
10350
10359
10358
10334
10287
10242
10224
10233
10239
10217
10180
10170
10216
10294
10341
10316
10244
10196
10227
10318
10398
10408
10348
10272
10231
10235
10258
10272
10275
10278
10288
10299
10298
10279
10244
10205
10174
10165
10187
10234
10281
10297
10272
10225
10189
10189
10218
10251
10260
10237
10191
10147
10128
10147
10200
10263
10308
10319
10301
10272
10249
10235
10225
10214
10206
10209
10224
10244
10258
10260
10255
10255
10264
10277
10278
10254
10206
10156
10128
10134
10164
10196
10215
10224
10234
10248
10258
10255
10241
10231
10230
10227
10202
10147
10082
10046
10068
10142
10231
10294
10312
10293
10261
10237
10224
10211
10191
10169
10164
10186
10226
10249
10230
10175
10125
10125
10188
10278
10341
10347
10310
10265
10231
10199
10148
10083
10038
10046
10111
10197
10257
10270
10251
10229
10216
10206
10185
10159
10149
10168
10206
10237
10244
10235
10226
10224
10216
10190
10154
10139
10166
10218
10253
10243
10202
10175
10192
10241
10284
10296
10288
10290
10308
10317
10290
10230
10179
10176
10222
10280
10305
10283
10240
10213
10227
10275
10327
10352
10328
10263
10185
10129
10120
10151
10198
10236
10248
10231
10193
10154
10137
10160
10214
10262
10264
10217
10155
10125
10138
10165
10164
10130
10092
10081
10097
10117
10125
10137
10172
10223
10254
10240
10193
10155
10153
10176
10190
10181
10169
10181
10220
10268
10315
10377
10469
10579
10676
10744
10806
10902
11037
11164
11224
11201
11129
11050
10961
10822
10605
10344
10116
9981
9941
9949
9965
9980
10004
10040
10073
10091
10100
10119
10156
10199
10229
10233
10212
10178
10142
10118
10117
10138
10169
10187
10182
10166
10157
10165
10177
10178
10168
10163
10174
10197
10213
10210
10197
10189
10191
10193
10190
10192
10212
10245
10266
10250
10201
10152
10134
10145
10156
10143
10113
10094
10112
10159
10207
10233
10239
10242
10250
10256
10250
10240
10245
10275
10314
10330
10304
10250
10207
10201
10226
10250
10254
10247
10255
10286
10316
10312
10272
10231
10238
10301
10380
10416
10383
10310
10249
10236
10270
10322
10370
10408
10437
10458
10463
10452
10431
10410
10394
10385
10387
10410
10457
10523
10591
10642
10661
10641
10586
10517
10462
10444
10466
10503
10529
10534
10529
10525
10523
10514
10500
10499
10523
10556
10560
10508
10423
10359
10355
10401
10448
10453
10416
10368
10335
10324
10330
10351
10385
10412
10398
10322
10209
10115
10088
10127
10192
10242
10263
10264
10252
10220
10168
10113
10087
10104
10150
10190
10205
10202
10200
10204
10204
10187
10155
10128
10119
10127
10139
10146
10147
10155
10177
10210
10239
10247
10230
10202
10186
10196
10222
10233
10204
10140
10077
10052
10075
10124
10166
10184
10184
10183
10186
10187
10182
10173
10172
10188
10222
10256
10267
10235
10167
10096
10068
10105
10187
10260
10282
10251
10204
10176
10170
10166
10151
10137
10140
10153
10149
10115
10076
10075
10130
10205
10247
10230
10184
10158
10167
10184
10174
10134
10101
10106
10144
10183
10199
10196
10195
10202
10201
10176
10138
10114
10122
10151
10173
10173
10160
10158
10176
10195
10188
10141
10070
10009
9989
10020
10084
10149
10187
10187
10163
10134
10116
10111
10115
10124
10139
10159
10173
10171
10153
10134
10131
10144
10158
10158
10143
10127
10123
10131
10138
10133
10118
10105
10105
10120
10148
10184
10217
10232
10211
10154
10079
10016
9985
9989
10013
10042
10070
10096
10118
10132
10133
10120
10101
10084
10078
10084
10095
10095
10076
10043
10015
10013
10041
10087
10128
10153
10160
10152
10132
10106
10090
10104
10146
10192
10211
10195
10164
10146
10148
10146
10120
10078
10054
10070
10108
10132
10120
10092
10082
10108
10149
10174
10167
10141
10117
10104
10097
10093
10096
10104
10110
10104
10087
10078
10091
10123
10156
10173
10171
10159
10141
10124
10114
10120
10141
10160
10155
10122
10082
10063
10072
10093
10104
10103
10100
10099
10089
10057
10010
9980
9992
10042
10097
10127
10124
10101
10077
10068
10079
10114
10161
10191
10178
10115
10034
9973
9952
9960
9974
9989
10013
10046
10067
10052
10002
9953
9947
9997
10079
10150
10185
10190
10191
10219
10291
10407
10544
10669
10756
10811
10864
10941
11032
11091
11070
10955
10771
10563
10368
10207
10087
10005
9951
9909
9870
9840
9834
9852
9876
9887
9894
9925
9998
10091
10149
10138
10075
10014
10000
10024
10044
10028
9994
9986
10032
10115
10187
10206
10167
10096
10028
9983
9966
9973
9998
10035
10077
10111
10128
10124
10107
10085
10068
10056
10050
10052
10067
10094
10125
10141
10132
10097
10050
10011
9991
9992
10006
10025
10042
10058
10079
10111
10145
10164
10156
10127
10099
10091
10101
10113
10115
10114
10128
10157
10180
10174
10143
10120
10131
10168
10200
10205
10190
10178
10175
10164
10137
10118
10141
10212
10285
10305
10260
10203
10199
10263
10346
10384
10356
10298
10261
10271
10316
10372
10421
10453
10459
10441
10413
10399
10405
10414
10410
10396
10400
10436
10481
10487
10436
10363
10331
10368
10437
10472
10438
10360
10296
10283
10312
10352
10379
10390
10384
10352
10288
10207
10146
10139
10183
10245
10284
10278
10236
10179
10124
10079
10050
10045
10063
10085
10088
10065
10034
10031
10076
10150
10206
10203
10142
10063
10011
10005
10032
10067
10094
10106
10100
10073
10029
9994
9997
10047
10116
10156
10138
10075
10006
9970
9977
10014
10059
10096
10116
10118
10107
10096
10095
10104
10109
10099
10077
10061
10064
10081
10096
10100
10098
10099
10100
10087
10054
10016
10001
10027
10078
10121
10127
10101
10067
10050
10053
10060
10058
10050
10057
10094
10151
10193
10185
10127
10053
10011
10020
10063
10100
10109
10097
10090
10100
10119
10131
10128
10115
10097
10077
10057
10042
10041
10050
10059
10060
10062
10080
10112
10134
10121
10080
10049
10064
10116
10155
10134
10058
9981
9960
10003
10072
10116
10116
10086
10055
10043
10054
10077
10097
10096
10070
10034
10020
10046
10100
10145
10147
10109
10059
10026
10016
10012
10003
9992
9990
10002
10023
10045
10066
10088
10106
10111
10099
10082
10074
10081
10089
10080
10048
10003
9965
9948
9957
9990
10040
10094
10133
10145
10133
10120
10123
10141
10150
10129
10081
10031
10011
10027
10055
10061
10032
9989
9970
9996
10054
10108
10125
10104
10063
10028
10015
10024
10055
10106
10163
10198
10187
10134
10076
10053
10075
10102
10085
10011
9923
9883
9919
10000
10066
10083
10063
10042
10048
10077
10110
10135
10148
10148
10131
10095
10058
10045
10071
10129
10189
10227
10234
10220
10197
10168
10136
10105
10085
10083
10096
10114
10124
10123
10112
10093
10071
10052
10047
10059
10085
10110
10118
10100
10061
10016
9986
9984
10011
10046
10069
10069
10060
10063
10087
10112
10112
10075
10027
10006
10027
10072
10098
10085
10047
10018
10017
10030
10034
10023
10014
10032
10080
10135
10176
10201
10234
10297
10396
10515
10632
10738
10833
10919
10991
11037
11043
11001
10915
10792
10640
10460
10255
10041
9855
9740
9721
9781
9874
9949
9988
10002
10014
10029
10041
10043
10045
10065
10104
10142
10149
10113
10051
9993
9965
9969
9993
10020
10042
10061
10082
10106
10131
10148
10154
10153
10149
10143
10124
10084
10037
10012
10036
10100
10158
10165
10116
10053
10031
10063
10118
10146
10124
10073
10030
10020
10039
10073
10108
10139
10155
10149
10118
10076
10048
10054
10097
10155
10201
10209
10180
10139
10124
10153
10206
10239
10221
10169
10131
10147
10209
10272
10297
10283
10255
10234
10212
10177
10136
10118
10138
10183
10224
10247
10267
10303
10345
10364
10348
10320
10321
10363
10413
10428
10393
10333
10283
10259
10257
10277
10326
10403
10480
10523
10518
10489
10474
10487
10511
10520
10509
10494
10482
10466
10435
10397
10377
10393
10436
10474
10487
10471
10439
10397
10346
10295
10263
10263
10286
10307
10308
10289
10265
10245
10226
10208
10194
10189
10182
10153
10101
10055
10049
10082
10113
10096
10034
9983
9994
10066
10142
10165
10133
10091
10082
10110
10145
10163
10164
10162
10154
10129
10086
10050
10045
10076
10117
10140
10145
10147
10157
10163
10147
10110
10079
10081
10114
10148
10153
10127
10089
10062
10056
10064
10084
10113
10152
10184
10187
10148
10078
10011
9981
10006
10073
10146
10190
10187
10148
10099
10067
10060
10070
10081
10086
10086
10094
10117
10152
10187
10204
10194
10162
10129
10112
10116
10127
10130
10121
10108
10104
10114
10128
10136
10134
10123
10105
10086
10076
10083
10106
10125
10119
10085
10053
10057
10109
10181
10225
10217
10170
10117
10081
10061
10050
10054
10083
10129
10163
10150
10088
10013
9971
9985
10041
10103
10144
10155
10145
10128
10119
10126
10144
10153
10133
10085
10036
10018
10041
10082
10109
10107
10092
10083
10086
10090
10085
10079
10089
10117
10142
10140
10108
10069
10050
10060
10084
10099
10094
10077
10063
10059
10063
10069
10078
10097
10126
10157
10170
10153
10110
10065
10044
10056
10084
10100
10086
10049
10016
10010
10036
10079
10121
10143
10139
10111
10069
10035
10027
10050
10091
10128
10146
10144
10132
10116
10100
10086
10081
10096
10130
10167
10186
10172
10132
10081
10042
10027
10040
10073
10114
10150
10175
10187
10184
10161
10120
10072
10041
10046
10088
10148
10201
10235
10249
10245
10218
10169
10116
10089
10106
10153
10191
10191
10156
10116
10091
10079
10062
10037
10025
10045
10095
10146
10168
10160
10137
10113
10088
10061
10045
10061
10111
10163
10172
10122
10047
10000
10004
10039
10066
10070
10068
10081
10102
10105
10077
10043
10039
10070
10101
10088
10030
9974
9976
10049
10155
10249
10321
10393
10486
10591
10678
10736
10786
10862
10974
11088
11150
11127
11021
10859
10674
10494
10335
10204
10095
9998
9913
9854
9840
9869
9918
9955
9971
9982
10006
10036
10052
10044
10040
10075
10152
10229
10248
10188
10091
10025
10024
10068
10106
10105
10079
10065
10085
10127
10156
10153
10126
10103
10103
10120
10134
10128
10104
10082
10076
10083
10090
10092
10097
10113
10135
10143
10125
10095
10082
10098
10125
10131
10108
10087
10104
10159
10210
10216
10178
10141
10148
10196
10240
10240
10199
10156
10141
10151
10159
10150
10139
10146
10178
10213
10226
10204
10162
10127
10122
10152
10203
10249
10265
10245
10207
10178
10176
10198
10231
10259
10279
10295
10314
10342
10380
10422
10454
10461
10441
10409
10390
10394
10409
10419
10419
10424
10449
10489
10527
10546
10543
10526
10491
10438
10381
10353
10382
10457
10529
10553
10521
10468
10435
10432
10444
10452
10451
10441
10413
10359
10294
10249
10249
10273
10272
10219
10146
10117
10166
10260
10327
10323
10267
10214
10199
10207
10199
10159
10107
10080
10092
10127
10153
10148
10117
10086
10081
10113
10164
10200
10198
10162
10121
10101
10102
10105
10095
10081
10079
10094
10107
10102
10084
10076
10095
10130
10157
10159
10145
10132
10124
10114
10095
10076
10067
10069
10073
10076
10093
10136
10191
10218
10191
10121
10059
10050
10094
10151
10175
10157
10124
10110
10123
10145
10151
10136
10117
10115
10140
10181
10211
10211
10180
10138
10110
10103
10112
10124
10141
10171
10213
10240
10222
10152
10066
10022
10052
10134
10209
10231
10198
10150
10127
10136
10153
10150
10120
10082
10055
10050
10056
10063
10067
10075
10090
10106
10112
10105
10094
10089
10094
10097
10091
10079
10074
10082
10091
10087
10069
10060
10087
10148
10211
10236
10214
10168
10134
10124
10126
10121
10108
10100
10103
10112
10108
10086
10056
10036
10040
10071
10120
10172
10205
10206
10178
10142
10123
10126
10131
10112
10066
10013
9978
9969
9978
10000
10037
10087
10128
10128
10075
10003
9970
10004
10082
10144
10153
10121
10089
10082
10091
10094
10086
10088
10115
10153
10174
10166
10143
10130
10126
10107
10051
9976
9924
9932
9994
10072
10132
10166
10184
10195
10188
10158
10115
10084
10079
10089
10090
10072
10053
10058
10096
10143
10166
10152
10116
10090
10090
10106
10114
10102
10075
10055
10059
10086
10120
10140
10138
10122
10114
10132
10172
10214
10231
10213
10175
10140
10128
10135
10145
10145
10134
10122
10118
10122
10127
10129
10131
10138
10148
10154
10140
10102
10046
9993
9961
9960
9981
10009
10032
10042
10044
10045
10052
10070
10098
10132
10161
10175
10167
10139
10102
10070
10052
10048
10057
10071
10081
10081
10070
10054
10042
10040
10046
10055
10063
10064
10060
10060
10087
10161
10287
10441
10581
10675
10726
10763
10816
10889
10963
11016
11043
11040
10997
10887
10700
10461
10226
10045
9933
9877
9859
9872
9910
9949
9961
9941
9919
9940
10016
10108
10155
10133
10072
10025
10026
10062
10096
10104
10090
10068
10055
10054
10067
10092
10120
10138
10135
10115
10092
10075
10061
10041
10019
10014
10041
10089
10123
10116
10077
10044
10058
10118
10186
10215
10191
10142
10107
10104
10119
10123
10106
10084
10078
10093
10112
10114
10099
10082
10085
10113
10157
10199
10229
10240
10229
10203
10175
10160
10159
10155
10132
10096
10083
10124
10216
10312
10356
10332
10268
10210
10187
10200
10234
10279
10324
10352
10343
10296
10233
10189
10186
10219
10269
10320
10362
10387
10386
10362
10336
10330
10347
10369
10377
10377
10393
10435
10478
10488
10458
10419
10408
10432
10461
10465
10449
10442
10462
10494
10507
10490
10464
10451
10455
10454
10433
10396
10361
10341
10330
10321
10310
10290
10258
10211
10164
10143
10160
10198
10224
10218
10191
10169
10164
10163
10151
10134
10136
10164
10199
10211
10197
10177
10172
10175
10158
10109
10048
10013
10026
10074
10123
10146
10140
10117
10099
10103
10134
10177
10200
10171
10097
10023
9998
10031
10081
10095
10062
10023
10028
10084
10147
10169
10141
10094
10065
10060
10059
10049
10043
10066
10127
10200
10242
10230
10179
10127
10105
10113
10129
10134
10128
10123
10133
10153
10171
10176
10166
10150
10132
10119
10115
10120
10127
10120
10089
10050
10040
10086
10174
10250
10262
10203
10118
10060
10050
10067
10085
10101
10129
10168
10195
10183
10136
10087
10066
10076
10091
10095
10092
10100
10122
10144
10151
10143
10133
10130
10132
10134
10135
10137
10134
10122
10105
10100
10119
10148
10152
10109
10038
9985
9987
10039
10101
10142
10161
10175
10188
10184
10142
10070
10003
9976
9999
10050
10093
10103
10082
10052
10039
10056
10092
10122
10124
10104
10091
10107
10149
10188
10195
10171
10140
10124
10118
10101
10059
10005
9970
9980
10032
10094
10132
10132
10111
10098
10111
10142
10163
10157
10133
10119
10127
10138
10117
10063
10013
10015
10074
10136
10143
10089
10031
10033
10108
10203
10253
10235
10173
10103
10042
9995
9972
9989
10043
10104
10135
10124
10100
10095
10119
10152
10169
10159
10129
10087
10045
10019
10029
10076
10130
10152
10133
10105
10108
10150
10199
10220
10217
10221
10243
10255
10221
10147
10084
10082
10132
10177
10167
10112
10065
10062
10095
10124
10129
10124
10125
10128
10111
10070
10033
10036
10085
10152
10202
10219
10214
10198
10175
10146
10115
10095
10092
10103
10114
10123
10128
10129
10123
10111
10098
10092
10085
10064
10023
9979
9961
9983
10034
10082
10108
10107
10087
10053
10014
9985
9989
10044
10140
10254
10363
10463
10559
10650
10730
10801
10877
10973
11078
11155
11163
11087
10943
10762
10569
10386
10230
10114
10032
9963
9893
9836
9825
9881
9980
10067
10099
10081
10051
10044
10064
10092
10109
10113
10107
10090
10062
10034
10029
10059
10111
10151
10159
10140
10117
10101
10089
10074
10067
10081
10118
10154
10161
10133
10093
10070
10078
10103
10129
10147
10155
10151
10130
10099
10079
10092
10141
10196
10223
10204
10151
10099
10076
10089
10126
10165
10186
10180
10157
10132
10120
10123
10132
10141
10155
10184
10225
10255
10253
10218
10175
10153
10165
10197
10228
10249
10266
10284
10298
10301
10295
10288
10287
10286
10278
10265
10260
10269
10285
10291
10283
10274
10285
10315
10349
10371
10387
10413
10450
10475
10462
10413
10360
10344
10374
10430
10481
10513
10531
10540
10535
10510
10476
10454
10454
10463
10453
10418
10381
10380
10428
10499
10551
10562
10546
10522
10491
10438
10354
10268
10228
10260
10339
10397
10385
10303
10205
10146
10146
10181
10216
10232
10231
10220
10201
10171
10141
10127
10146
10188
10229
10239
10211
10157
10106
10079
10080
10096
10109
10112
10114
10129
10157
10179
10164
10110
10049
10032
10079
10154
10198
10183
10138
10120
10155
10210
10225
10177
10101
10056
10064
10100
10124
10125
10127
10147
10169
10152
10080
9985
9926
9943
10023
10116
10174
10179
10147
10111
10094
10101
10121
10134
10129
10112
10103
10118
10153
10184
10192
10173
10139
10108
10085
10073
10076
10097
10130
10160
10172
10164
10150
10139
10129
10113
10095
10100
10140
10199
10234
10212
10143
10074
10049
10075
10121
10151
10150
10133
10115
10103
10096
10095
10104
10124
10144
10149
10135
10109
10085
10076
10083
10100
10120
10132
10127
10105
10077
10063
10076
10110
10141
10148
10129
10101
10082
10079
10085
10090
10098
10113
10135
10155
10159
10145
10123
10110
10113
10128
10147
10160
10163
10150
10125
10099
10094
10121
10165
10192
10174
10114
10047
10013
10019
10041
10045
10023
9994
9986
10004
10035
10063
10093
10135
10190
10235
10243
10206
10146
10097
10083
10101
10127
10137
10120
10083
10045
10025
10031
10052
10072
10081
10086
10100
10129
10161
10179
10174
10153
10131
10111
10091
10072
10063
10076
10108
10138
10145
10121
10083
10054
10047
10058
10077
10095
10107
10111
10106
10089
10063
10031
10004
9998
10025
10083
10151
10195
10199
10175
10157
10168
10203
10231
10228
10195
10150
10117
10104
10108
10124
10146
10159
10151
10119
10079
10055
10058
10073
10082
10078
10073
10081
10095
10100
10086
10067
10061
10075
10094
10105
10106
10108
10110
10099
10063
10010
9969
9961
9983
10011
10025
10032
10051
10090
10134
10159
10153
10125
10091
10061
10037
10024
10030
10058
10101
10141
10161
10165
10167
10188
10241
10328
10438
10553
10654
10728
10777
10818
10872
10947
11026
11077
11059
10949
10758
10525
10310
10155
10073
10035
10001
9948
9887
9846
9847
9879
9918
9948
9975
10014
10069
10117
10131
10108
10071
10055
10071
10099
10105
10075
10030
10005
10022
10074
10128
10158
10156
10132
10102
10082
10076
10080
10081
10069
10046
10033
10050
10094
10134
10133
10085
10029
10015
10066
10146
10196
10177
10106
10033
10003
10021
10058
10082
10075
10047
10022
10025
10065
10128
10183
10203
10180
10136
10104
10098
10112
10127
10137
10151
10173
10194
10194
10169
10137
10128
10155
10205
10246
10257
10237
10201
10170
10164
10189
10237
10286
10308
10295
10261
10233
10232
10256
10293
10330
10363
10387
10392
10376
10349
10334
10345
10374
10404
10420
10424
10420
10408
10386
10364
10372
10427
10508
10560
10538
10450
10356
10319
10356
10426
10476
10483
10461
10437
10420
10402
10379
10366
10377
10409
10438
10433
10387
10317
10249
10202
10177
10169
10178
10205
10244
10271
10263
10214
10153
10118
10131
10172
10194
10169
10112
10067
10065
10099
10133
10145
10141
10133
10115
10067
9988
9919
9918
10002
10124
10205
10205
10153
10108
10099
10109
10106
10088
10079
10093
10106
10084
10029
9983
9993
10057
10131
10170
10168
10157
10160
10170
10169
10160
10161
10184
10206
10194
10139
10075
10043
10049
10062
10052
10022
10006
10025
10067
10099
10106
10102
10110
10130
10139
10124
10096
10084
10103
10135
10153
10144
10115
10087
10069
10065
10074
10099
10136
10168
10179
10166
10137
10107
10078
10049
10027
10032
10072
10133
10177
10179
10144
10101
10073
10061
10055
10053
10063
10086
10104
10096
10066
10044
10062
10117
10171
10186
10160
10125
10109
10112
10113
10098
10077
10072
10084
10095
10086
10057
10028
10013
10015
10022
10029
10035
10040
10035
10018
10004
10010
10046
10099
10141
10157
10147
10124
10096
10067
10046
10046
10073
10110
10129
10116
10085
10068
10080
10109
10125
10110
10075
10040
10018
10010
10013
10030
10062
10097
10115
10100
10060
10023
10014
10031
10054
10060
10048
10036
10046
10080
10117
10125
10091
10038
10007
10023
10068
10097
10077
10022
9983
10001
10065
10128
10143
10111
10070
10054
10067
10091
10106
10113
10115
10106
10077
10033
10003
10014
10065
10118
10135
10108
10064
10039
10044
10065
10080
10085
10089
10104
10131
10157
10170
10162
10137
10104
10076
10060
10061
10077
10105
10136
10154
10144
10106
10061
10039
10051
10074
10073
10041
10013
10035
10108
10180
10185
10113
10019
9975
10001
10058
10088
10074
10039
10009
9989
9971
9962
9987
10054
10127
10154
10118
10051
10001
9983
9974
9953
9935
9955
10022
10094
10120
10096
10068
10083
10142
10202
10234
10257
10322
10457
10635
10798
10901
10943
10944
10927
10899
10860
10806
10725
10603
10441
10266
10120
10028
9981
9948
9911
9877
9863
9873
9892
9911
9936
9977
10026
10058
10055
10029
10012
10022
10048
10060
10046
10027
10036
10080
10134
10159
10138
10084
10027
9996
10003
10039
10082
10105
10095
10062
10039
10052
10097
10138
10139
10095
10034
9993
9986
9999
10013
10025
10043
10069
10092
10097
10087
10086
10111
10155
10192
10196
10170
10137
10120
10117
10108
10086
10068
10084
10145
10218
10251
10213
10122
10036
10002
10029
10088
10135
10145
10119
10071
10022
9998
10021
10093
10187
10261
10286
10274
10256
10257
10267
10261
10234
10208
10210
10240
10264
10258
10231
10222
10259
10328
10387
10405
10389
10367
10360
10364
10366
10365
10373
10393
10412
10410
10379
10333
10297
10289
10310
10352
10395
10424
10427
10412
10401
10412
10440
10453
10424
10357
10287
10247
10239
10238
10222
10199
10198
10234
10284
10309
10285
10222
10149
10090
10054
10039
10044
10069
10104
10137
10156
10159
10148
10126
10099
10077
10076
10103
10145
10178
10184
10163
10125
10081
10040
10015
10023
10070
10137
10181
10174
10121
10058
10017
10003
10000
9999
10004
10020
10036
10035
10017
10005
10020
10055
10080
10073
10049
10044
10075
10118
10131
10100
10053
10026
10031
10052
10067
10078
10099
10132
10157
10152
10116
10071
10041
10035
10049
10076
10108
10134
10138
10114
10079
10056
10057
10069
10068
10049
10028
10026
10045
10071
10091
10102
10104
10094
10068
10044
10049
10091
10142
10153
10106
10037
10012
10056
10135
10188
10186
10153
10131
10129
10122
10094
10061
10058
10091
10130
10135
10102
10064
10050
10054
10050
10024
9997
10000
10035
10077
10099
10098
10091
10086
10078
10058
10032
10019
10027
10044
10057
10069
10092
10127
10153
10148
10115
10084
10081
10102
10117
10110
10090
10083
10091
10090
10052
9989
9941
9946
9998
10053
10075
10064
10050
10059
10088
10111
10111
10093
10076
10074
10082
10085
10075
10054
10035
10030
10044
10071
10102
10126
10135
10127
10106
10074
10037
10007
9995
10011
10049
10092
10118
10115
10091
10064
10052
10056
10065
10066
10053
10037
10034
10052
10083
10109
10116
10109
10104
10116
10137
10142
10109
10043
9980
9963
10011
10102
10188
10229
10221
10188
10163
10160
10171
10174
10160
10130
10096
10066
10038
10008
9981
9973
9995
10043
10098
10133
10132
10097
10046
10005
9991
10007
10038
10059
10054
10028
10004
10003
10031
10067
10085
10073
10044
10021
10021
10042
10069
10087
10090
10083
10073
10067
10064
10055
10033
10004
9988
10009
10074
10168
10265
10352
10437
10532
10630
10711
10764
10803
10858
10936
11004
11012
10936
10800
10650
10511
10375
10224
10065
9930
9847
9816
9814
9825
9854
9912
9990
10061
10102
10117
10126
10141
10151
10135
10090
10037
10005
10005
10025
10044
10052
10057
10067
10087
10110
10123
10113
10076
10025
9987
9989
10032
10088
10122
10118
10096
10084
10096
10110
10101
10066
10035
10039
10083
10135
10161
10152
10129
10116
10115
10107
10079
10042
10030
10065
10135
10198
10210
10167
10106
10076
10095
10134
10153
10132
10095
10086
10124
10186
10231
10234
10208
10185
10186
10204
10220
10226
10224
10222
10218
10205
10182
10159
10151
10165
10194
10228
10257
10282
10304
10327
10350
10367
10373
10363
10346
10337
10353
10394
10437
10455
10433
10389
10353
10349
10379
10423
10459
10472
10463
10442
10428
10436
10465
10502
10526
10532
10527
10524
10518
10489
10427
10350
10303
10314
10368
10413
10409
10363
10315
10304
10324
10344
10334
10299
10262
10241
10236
10235
10231
10223
10206
10174
10131
10098
10101
10141
10188
10202
10170
10118
10090
10104
10141
10165
10161
10143
10136
10149
10168
10174
10158
10132
10113
10110
10124
10145
10163
10169
10155
10125
10088
10058
10042
10043
10060
10088
10118
10137
10134
10111
10087
10080
10090
10100
10092
10068
10049
10054
10083
10115
10133
10139
10147
10163
10180
10179
10155
10118
10081
10053
10037
10036
10055
10094
10141
10179
10198
10197
10181
10154
10117
10084
10073
10090
10122
10141
10136
10119
10116
10131
10143
10133
10109
10102
10127
10160
10156
10096
10011
9952
9951
9993
10049
10098
10138
10161
10150
10098
10037
10018
10065
10145
10200
10199
10167
10148
10150
10141
10100
10050
10046
10109
10191
10218
10167
10088
10053
10082
10133
10151
10130
10102
10093
10094
10083
10066
10075
10125
10181
10187
10126
10040
9992
10000
10032
10050
10061
10096
10155
10182
10123
9990
9876
9873
9985
10122
10185
10155
10096
10082
10121
10162
10162
10126
10096
10095
10100
10077
10026
9988
10000
10060
10125
10157
10158
10154
10165
10179
10169
10132
10096
10092
10118
10136
10106
10027
9947
9920
9966
10055
10135
10175
10178
10169
10169
10175
10178
10172
10162
10152
10144
10135
10129
10130
10140
10150
10154
10155
10164
10186
10208
10205
10165
10105
10057
10044
10055
10068
10070
10069
10078
10094
10102
10087
10058
10038
10041
10058
10069
10062
10045
10032
10033
10047
10069
10096
10122
10139
10145
10144
10141
10129
10090
10020
9947
9920
9969
10066
10143
10142
10070
9982
9936
9943
9980
10024
10076
10145
10222
10286
10333
10387
10485
10626
10768
10868
10921
10964
11026
11090
11105
11036
10898
10732
10570
10411
10249
10094
9970
9893
9854
9839
9852
9899
9971
10028
10034
9995
9957
9962
10004
10040
10040
10022
10029
10075
10128
10147
10127
10102
10096
10098
10073
10019
9980
10004
10083
10154
10159
10103
10052
10063
10124
10170
10151
10081
10023
10027
10089
10158
10192
10187
10167
10156
10157
10168
10185
10208
10227
10224
10187
10125
10069
10047
10067
10111
10152
10175
10180
10175
10166
10153
10140
10132
10128
10122
10107
10089
10086
10114
10163
10204
10208
10175
10140
10139
10184
10248
10299
10323
10329
10329
10320
10290
10244
10207
10202
10229
10263
10282
10289
10304
10332
10351
10335
10290
10253
10264
10323
10395
10441
10454
10454
10454
10453
10444
10435
10440
10457
10456
10415
10356
10340
10407
10528
10616
10603
10506
10412
10401
10471
10553
10574
10520
10437
10371
10333
10304
10267
10234
10223
10236
10260
10274
10276
10268
10247
10210
10159
10118
10110
10138
10179
10207
10210
10200
10191
10185
10175
10154
10125
10096
10070
10051
10051
10084
10148
10217
10248
10221
10154
10091
10066
10082
10117
10148
10162
10154
10127
10090
10065
10077
10127
10182
10198
10152
10067
9990
9958
9973
10012
10054
10090
10115
10118
10092
10049
10023
10041
10100
10169
10208
10201
10160
10113
10082
10075
10087
10108
10124
10126
10119
10119
10139
10175
10201
10195
10159
10118
10100
10107
10119
10115
10098
10089
10106
10141
10167
10161
10127
10090
10076
10093
10125
10151
10162
10162
10156
10140
10107
10058
10018
10013
10049
10098
10121
10102
10065
10052
10077
10121
10148
10148
10142
10151
10173
10184
10163
10117
10067
10027
9997
9976
9974
10002
10044
10068
10055
10029
10033
10085
10150
10172
10131
10068
10039
10067
10120
10154
10152
10135
10122
10117
10113
10118
10140
10171
10176
10130
10053
10006
10029
10107
10181
10207
10196
10181
10171
10141
10073
9989
9944
9966
10027
10069
10068
10047
10049
10082
10120
10133
10119
10102
10092
10079
10051
10014
9996
10011
10048
10082
10100
10107
10117
10132
10147
10158
10173
10194
10217
10226
10214
10188
10160
10141
10136
10144
10161
10172
10162
10130
10096
10093
10132
10194
10237
10235
10194
10143
10108
10091
10081
10071
10062
10056
10051
10045
10038
10035
10043
10064
10096
10132
10161
10170
10151
10108
10057
10016
9995
10000
10038
10110
10199
10266
10275
10226
10156
10115
10118
10137
10134
10102
10061
10037
10029
10023
10017
10028
10065
10111
10133
10123
10115
10152
10249
10381
10515
10645
10778
10911
11013
11061
11064
11058
11056
11025
10908
10696
10444
10233
10104
10036
9986
9933
9889
9872
9876
9887
9900
9932
9993
10072
10141
10179
10182
10157
10109
10052
10014
10021
10072
10128
10144
10114
10077
10079
10123
10160
10144
10077
10014
10006
10057
10130
10181
10196
10188
10170
10144
10111
10083
10071
10074
10075
10064
10054
10069
10118
10183
10225
10224
10190
10157
10147
10159
10170
10163
10139
10118
10116
10135
10159
10172
10171
10170
10182
10206
10225
10221
10195
10169
10166
10188
10217
10230
10222
10205
10193
10192
10200
10220
10251
10287
10304
10286
10243
10213
10225
10273
10312
10303
10255
10219
10245
10327
10413
10447
10417
10363
10334
10347
10384
10421
10449
10475
10501
10512
10497
10463
10434
10423
10427
10429
10431
10448
10492
10542
10560
10526
10465
10434
10464
10530
10569
10538
10455
10379
10359
10395
10451
10487
10488
10458
10407
10343
10282
10244
10242
10265
10291
10300
10294
10280
10257
10219
10163
10109
10084
10103
10150
10200
10238
10266
10287
10291
10263
10200
10123
10062
10031
10030
10055
10103
10171
10235
10261
10227
10148
10067
10028
10045
10099
10158
10197
10202
10168
10101
10020
9956
9941
9983
10061
10143
10193
10198
10164
10120
10095
10106
10144
10176
10175
10144
10119
10130
10178
10226
10238
10207
10159
10128
10118
10113
10103
10100
10125
10183
10249
10288
10286
10259
10232
10220
10213
10200
10183
10175
10182
10193
10182
10140
10081
10036
10027
10054
10096
10129
10141
10133
10118
10109
10118
10145
10181
10201
10187
10141
10087
10059
10068
10102
10136
10157
10173
10191
10204
10194
10156
10110
10090
10109
10144
10158
10135
10096
10081
10104
10143
10160
10135
10084
10046
10049
10088
10133
10156
10145
10118
10100
10108
10138
10166
10174
10160
10140
10134
10144
10158
10165
10162
10154
10142
10123
10095
10068
10054
10053
10056
10053
10050
10065
10105
10152
10175
10164
10134
10120
10135
10164
10179
10168
10138
10111
10099
10102
10114
10122
10117
10095
10069
10066
10103
10167
10222
10236
10216
10196
10204
10230
10235
10199
10139
10097
10095
10120
10147
10164
10180
10198
10205
10183
10137
10100
10099
10127
10150
10143
10117
10111
10144
10197
10227
10207
10150
10093
10066
10068
10082
10092
10098
10109
10131
10155
10164
10145
10100
10052
10028
10035
10060
10076
10068
10049
10044
10066
10107
10147
10170
10172
10152
10109
10050
9999
9987
10027
10096
10155
10179
10186
10216
10294
10404
10514
10602
10677
10760
10857
10952
11024
11064
11076
11059
11003
10897
10747
10574
10400
10240
10101
9992
9926
9908
9928
9962
9984
9985
9975
9968
9979
10008
10051
10097
10132
10147
10139
10120
10104
10100
10106
10113
10116
10120
10135
10162
10188
10194
10170
10128
10092
10081
10088
10094
10083
10064
10064
10102
10168
10225
10237
10204
10154
10129
10141
10173
10193
10185
10156
10130
10125
10141
10162
10176
10182
10187
10201
10227
10255
10266
10249
10205
10154
10124
10131
10168
10212
10237
10236
10220
10205
10199
10199
10200
10203
10212
10227
10234
10225
10205
10194
10206
10237
10262
10264
10250
10243
10259
10291
10316
10329
10343
10372
10407
10414
10372
10297
10239
10238
10288
10351
10391
10402
10403
10412
10434
10463
10494
10519
10523
10492
10435
10387
10387
10435
10492
10515
10502
10495
10531
10601
10651
10637
10565
10486
10440
10430
10426
10410
10394
10398
10423
10440
10417
10353
10278
10230
10230
10268
10314
10335
10314
10264
10214
10193
10207
10232
10239
10224
10209
10218
10244
10260
10243
10204
10171
10158
10155
10141
10118
10111
10140
10194
10237
10246
10230
10216
10221
10231
10226
10201
10171
10152
10149
10153
10159
10172
10190
10205
10206
10196
10191
10201
10220
10230
10223
10211
10210
10222
10230
10221
10202
10190
10195
10204
10199
10177
10163
10178
10224
10275
10300
10286
10247
10205
10176
10162
10158
10162
10175
10199
10229
10254
10259
10241
10214
10205
10232
10287
10333
10335
10289
10229
10195
10200
10223
10228
10200
10158
10131
10137
10171
10212
10240
10250
10241
10220
10197
10179
10170
10163
10153
10138
10130
10141
10176
10222
10259
10268
10248
10209
10172
10160
10179
10217
10242
10226
10169
10105
10080
10115
10186
10243
10247
10198
10135
10098
10101
10132
10169
10195
10208
10210
10204
10189
10165
10139
10121
10125
10155
10201
10238
10239
10204
10157
10134
10155
10203
10248
10264
10250
10219
10184
10152
10129
10125
10147
10182
10206
10206
10194
10204
10248
10305
10333
10314
10270
10242
10247
10266
10264
10232
10194
10179
10188
10195
10179
10145
10121
10127
10153
10175
10173
10144
10102
10062
10040
10051
10103
10182
10246
10254
10200
10122
10078
10096
10156
10212
10226
10198
10148
10097
10057
10033
10035
10070
10126
10177
10200
10191
10167
10145
10129
10114
10105
10115
10158
10228
10305
10374
10442
10534
10661
10807
10933
11012
11044
11049
11047
11037
11009
10952
10862
10737
10572
10373
10169
10007
9924
9917
9946
9961
9942
9906
9885
9902
9951
10011
10069
10120
10163
10189
10186
10154
10109
10081
10089
10129
10177
10206
10205
10182
10161
10155
10161
10166
10159
10145
10140
10151
10171
10184
10178
10161
10144
10133
10128
10129
10141
10165
10195
10212
10206
10192
10193
10220
10253
10261
10236
10200
10185
10200
10219
10215
10183
10149
10135
10138
10138
10123
10106
10106
10127
10152
10159
10151
10146
10163
10201
10243
10272
10286
10292
10295
10299
10304
10306
10302
10289
10272
10262
10266
10277
10276
10253
10224
10223
10270
10346
10405
10412
10375
10339
10348
10409
10485
10527
10513
10461
10417
10414
10448
10485
10494
10479
10478
10518
10583
10615
10573
10477
10399
10400
10468
10535
10539
10484
10427
10416
10441
10455
10431
10388
10366
10377
10394
10385
10354
10332
10340
10367
10382
10374
10358
10351
10347
10324
10272
10211
10176
10177
10198
10209
10198
10175
10161
10161
10170
10179
10178
10167
10146
10121
10106
10110
10132
10161
10177
10173
10155
10137
10129
10135
10150
10164
10172
10171
10160
10139
10105
10062
10025
10023
10073
10161
10241
10265
10225
10158
10114
10120
10160
10201
10223
10229
10227
10214
10191
10166
10154
10161
10170
10161
10136
10119
10131
10167
10196
10193
10159
10119
10089
10075
10075
10090
10115
10136
10132
10107
10087
10104
10158
10217
10247
10240
10215
10189
10159
10120
10088
10091
10138
10199
10228
10212
10181
10171
10178
10165
10113
10052
10038
10089
10160
10187
10149
10088
10065
10102
10169
10223
10238
10219
10179
10128
10079
10050
10050
10072
10093
10102
10106
10116
10132
10137
10126
10113
10121
10149
10170
10154
10105
10056
10044
10076
10134
10188
10218
10213
10178
10133
10114
10139
10190
10217
10183
10103
10031
10014
10046
10085
10102
10111
10144
10197
10232
10213
10153
10099
10093
10128
10171
10197
10211
10223
10223
10193
10142
10106
10123
10186
10249
10263
10224
10169
10133
10122
10119
10108
10088
10064
10038
10016
10010
10034
10081
10121
10125
10094
10067
10082
10137
10193
10208
10174
10126
10101
10112
10140
10160
10160
10144
10125
10109
10099
10091
10078
10055
10027
10012
10025
10066
10109
10124
10100
10056
10023
10026
10067
10139
10233
10346
10466
10577
10667
10745
10835
10949
11069
11154
11173
11129
11054
10972
10878
10745
10559
10345
10154
10026
9958
9919
9883
9849
9839
9866
9918
9973
10015
10042
10060
10065
10056
10039
10029
10039
10062
10079
10081
10074
10079
10104
10135
10150
10140
10117
10098
10085
10068
10040
10006
9989
10010
10073
10154
10217
10234
10202
10148
10113
10117
10147
10165
10145
10098
10060
10062
10101
10146
10171
10175
10176
10187
10198
10192
10160
10115
10080
10073
10094
10129
10157
10161
10142
10120
10125
10164
10216
10238
10205
10133
10068
10051
10085
10144
10192
10212
10205
10186
10174
10190
10240
10304
10346
10341
10300
10265
10274
10323
10372
10383
10354
10309
10273
10253
10244
10247
10271
10309
10341
10348
10344
10362
10419
10495
10546
10549
10523
10505
10508
10511
10488
10438
10390
10372
10386
10414
10439
10454
10460
10454
10440
10426
10426
10436
10436
10409
10360
10313
10289
10287
10290
10288
10286
10285
10271
10224
10149
10082
10061
10092
10140
10167
10167
10166
10185
10218
10235
10217
10177
10146
10145
10173
10207
10220
10194
10129
10050
9998
10004
10066
10144
10184
10165
10110
10064
10056
10078
10105
10116
10109
10094
10082
10080
10089
10108
10123
10119
10094
10066
10061
10092
10144
10189
10208
10201
10178
10154
10138
10143
10169
10205
10225
10209
10161
10107
10073
10065
10069
10073
10079
10097
10127
10155
10165
10152
10130
10109
10100
10104
10125
10157
10184
10180
10138
10079
10040
10045
10084
10124
10145
10149
10152
10157
10151
10127
10099
10095
10126
10171
10189
10157
10095
10045
10040
10076
10120
10140
10130
10106
10091
10091
10097
10096
10087
10076
10073
10075
10076
10071
10068
10076
10098
10122
10132
10121
10099
10084
10085
10095
10101
10095
10081
10071
10072
10084
10100
10112
10120
10125
10131
10136
10136
10128
10115
10110
10125
10161
10198
10212
10191
10143
10088
10043
10015
10009
10025
10062
10107
10136
10135
10108
10075
10051
10037
10027
10023
10038
10077
10125
10154
10147
10121
10109
10130
10168
10188
10167
10119
10080
10084
10128
10183
10210
10194
10151
10117
10114
10135
10150
10135
10094
10061
10064
10095
10123
10121
10099
10089
10109
10143
10150
10107
10031
9963
9934
9951
9996
10046
10082
10090
10069
10039
10025
10043
10080
10103
10101
10095
10114
10159
10190
10165
10087
10011
9999
10065
10167
10251
10300
10340
10404
10505
10627
10748
10854
10935
10978
10971
10920
10846
10769
10687
10581
10435
10260
10093
9967
9896
9868
9865
9879
9910
9958
10004
10025
10009
9976
9965
10003
10076
10137
10144
10104
10063
10064
10095
10111
10080
10028
10014
10062
10130
10148
10091
10007
9967
9996
10053
10082
10073
10064
10088
10133
10162
10157
10141
10146
10169
10178
10150
10102
10072
10077
10095
10098
10084
10076
10089
10107
10106
10086
10078
10109
10166
10207
10201
10154
10099
10063
10055
10071
10106
10155
10199
10215
10197
10169
10160
10175
10188
10176
10146
10132
10155
10199
10226
10219
10199
10203
10243
10293
10316
10301
10266
10239
10230
10235
10241
10241
10237
10231
10234
10257
10304
10364
10414
10434
10427
10412
10402
10395
10377
10348
10329
10339
10376
10415
10429
10415
10399
10408
10448
10498
10529
10521
10478
10417
10360
10323
10313
10327
10351
10367
10367
10351
10330
10318
10321
10335
10343
10326
10277
10209
10148
10124
10143
10190
10232
10240
10211
10164
10133
10138
10173
10208
10212
10179
10129
10096
10090
10095
10085
10060
10045
10070
10128
10175
10170
10111
10046
10027
10065
10125
10160
10149
10111
10072
10047
10032
10026
10035
10067
10117
10161
10182
10180
10170
10166
10169
10164
10137
10091
10043
10016
10022
10052
10080
10081
10058
10036
10046
10092
10147
10175
10164
10135
10125
10142
10165
10166
10139
10111
10108
10129
10149
10147
10125
10107
10113
10141
10171
10187
10191
10194
10206
10224
10233
10217
10173
10116
10074
10069
10101
10142
10160
10144
10110
10084
10077
10076
10067
10054
10057
10087
10128
10148
10137
10114
10109
10133
10162
10164
10132
10092
10071
10081
10105
10126
10143
10161
10178
10183
10164
10130
10101
10095
10106
10115
10110
10094
10079
10070
10063
10058
10065
10099
10158
10217
10243
10223
10175
10137
10131
10149
10159
10142
10102
10065
10055
10074
10106
10131
10138
10125
10094
10048
10003
9985
10020
10102
10195
10248
10234
10169
10102
10071
10084
10119
10150
10172
10190
10210
10222
10213
10184
10156
10149
10165
10187
10196
10193
10193
10206
10223
10221
10191
10147
10115
10111
10121
10117
10090
10056
10045
10065
10101
10124
10119
10093
10062
10043
10046
10079
10141
10208
10236
10193
10090
9985
9944
9985
10072
10144
10169
10158
10141
10131
10120
10100
10080
10075
10090
10112
10128
10140
10154
10166
10167
10157
10163
10212
10305
10409
10490
10545
10603
10686
10779
10849
10879
10889
10901
10905
10859
10735
10555
10376
10241
10149
10073
9999
9944
9923
9932
9948
9962
9985
10029
10085
10126
10134
10124
10118
10124
10126
10111
10086
10070
10069
10071
10065
10059
10073
10104
10126
10115
10076
10045
10053
10094
10141
10174
10196
10215
10217
10187
10128
10082
10085
10138
10193
10209
10181
10147
10134
10141
10143
10133
10129
10151
10192
10221
10220
10200
10185
10186
10192
10184
10156
10121
10093
10080
10081
10096
10121
10149
10174
10192
10209
10227
10241
10243
10234
10232
10247
10268
10272
10248
10218
10215
10249
10300
10332
10331
10311
10291
10279
10275
10278
10296
10328
10354
10355
10327
10293
10279
10295
10332
10380
10433
10483
10512
10504
10467
10434
10430
10451
10465
10450
10416
10392
10391
10401
10405
10411
10440
10490
10525
10512
10460
10417
10424
10470
10503
10486
10429
10372
10342
10329
10312
10291
10285
10302
10322
10319
10291
10259
10245
10246
10241
10225
10210
10211
10217
10209
10181
10153
10151
10178
10211
10225
10219
10206
10196
10183
10164
10147
10147
10166
10184
10184
10167
10147
10137
10127
10106
10080
10069
10083
10109
10120
10102
10075
10069
10097
10147
10194
10220
10219
10191
10146
10101
10080
10094
10134
10172
10189
10190
10189
10193
10194
10182
10163
10157
10170
10192
10201
10189
10165
10142
10124
10107
10090
10083
10090
10108
10124
10139
10165
10212
10265
10294
10277
10220
10157
10119
10117
10139
10161
10167
10152
10124
10099
10094
10112
10138
10155
10159
10167
10192
10224
10233
10202
10147
10112
10124
10167
10199
10191
10158
10135
10140
10158
10164
10153
10146
10158
10178
10180
10151
10115
10106
10138
10187
10212
10198
10161
10131
10127
10142
10156
10160
10159
10160
10165
10162
10145
10115
10088
10079
10093
10121
10147
10155
10144
10123
10106
10099
10098
10096
10090
10089
10108
10155
10220
10276
10293
10261
10198
10138
10104
10099
10108
10120
10137
10164
10197
10222
10222
10199
10170
10152
10152
10161
10172
10185
10196
10195
10168
10119
10076
10070
10105
10150
10166
10141
10109
10116
10181
10274
10338
10333
10267
10184
10133
10135
10176
10224
10250
10243
10218
10196
10191
10199
10200
10180
10140
10102
10088
10105
10138
10163
10167
10148
10124
10113
10127
10159
10186
10182
10139
10076
10032
10036
10081
10128
10141
10115
10080
10071
10102
10155
10202
10224
10216
10188
10146
10104
10075
10070
10085
10106
10121
10133
10153
10183
10214
10238
10271
10341
10464
10616
10750
10833
10884
10947
11046
11152
11201
11150
11010
10826
10636
10449
10264
10098
9982
9936
9943
9966
9976
9978
9993
10028
10068
10093
10101
10109
10130
10158
10175
10170
10149
10130
10123
10124
10128
10128
10121
10109
10096
10092
10105
10134
10165
10183
10186
10188
10203
10226
10240
10230
10199
10163
10137
10123
10118
10124
10143
10173
10201
10210
10198
10174
10149
10130
10117
10121
10151
10200
10240
10236
10181
10113
10088
10136
10231
10314
10334
10286
10206
10144
10125
10149
10197
10241
10260
10242
10192
10140
10121
10159
10244
10339
10404
10417
10389
10347
10314
10295
10282
10268
10254
10251
10266
10297
10331
10355
10361
10356
10350
10351
10362
10378
10391
10397
10393
10390
10399
10428
10473
10514
10534
10526
10498
10470
10458
10466
10489
10516
10532
10534
10524
10511
10504
10505
10503
10492
10472
10453
10444
10452
10469
10487
10491
10473
10429
10372
10327
10313
10329
10348
10338
10300
10261
10254
10277
10297
10281
10232
10188
10181
10208
10234
10235
10215
10200
10201
10205
10194
10171
10158
10169
10190
10197
10183
10168
10177
10205
10221
10194
10130
10072
10059
10101
10169
10227
10256
10258
10242
10212
10168
10120
10089
10095
10137
10188
10210
10184
10126
10082
10087
10139
10205
10245
10247
10231
10223
10229
10235
10223
10196
10173
10170
10181
10192
10190
10176
10164
10165
10182
10208
10231
10241
10233
10212
10187
10165
10148
10136
10138
10164
10216
10274
10305
10291
10244
10198
10176
10179
10192
10207
10223
10236
10228
10186
10131
10105
10138
10207
10254
10237
10177
10134
10151
10209
10250
10235
10178
10124
10104
10114
10131
10140
10144
10147
10153
10161
10175
10193
10208
10207
10194
10189
10206
10232
10237
10202
10153
10134
10166
10221
10248
10222
10165
10111
10077
10054
10039
10051
10107
10193
10259
10264
10216
10166
10157
10187
10217
10216
10190
10167
10164
10167
10156
10128
10103
10104
10137
10188
10233
10258
10255
10231
10201
10184
10189
10206
10216
10200
10162
10122
10102
10112
10150
10201
10248
10271
10255
10205
10145
10104
10100
10123
10148
10154
10137
10112
10096
10099
10116
10137
10152
10162
10175
10194
10217
10230
10223
10201
10183
10185
10204
10224
10227
10215
10201
10193
10186
10167
10139
10115
10112
10132
10162
10189
10207
10216
10213
10196
10169
10147
10143
10155
10167
10163
10144
10123
10110
10104
10096
10085
10076
10078
10094
10119
10146
10161
10153
10117
10071
10043
10052
10092
10129
10137
10119
10104
10110
10128
10136
10126
10119
10140
10187
10231
10249
10249
10266
10327
10431
10553
10673
10782
10879
10958
11015
11052
11070
11055
10982
10836
10637
10431
10260
10130
10021
9920
9839
9801
9813
9857
9909
9962
10021
10082
10128
10145
10138
10132
10141
10158
10165
10160
10160
10178
10204
10211
10190
10154
10130
10124
10125
10121
10118
10127
10145
10151
10126
10080
10044
10043
10072
10102
10115
10115
10117
10131
10151
10167
10178
10185
10186
10176
10151
10119
10095
10089
10101
10126
10156
10183
10199
10200
10195
10201
10217
10226
10205
10152
10095
10073
10098
10151
10200
10230
10247
10255
10245
10209
10159
10129
10145
10197
10247
10263
10251
10237
10244
10261
10271
10270
10276
10306
10352
10387
10393
10380
10375
10393
10418
10420
10384
10321
10258
10219
10216
10249
10315
10401
10484
10536
10540
10500
10441
10400
10403
10447
10501
10524
10491
10413
10339
10316
10362
10448
10526
10559
10548
10511
10465
10417
10370
10337
10332
10353
10381
10395
10388
10376
10375
10379
10367
10326
10273
10238
10237
10254
10258
10233
10196
10175
10180
10194
10190
10161
10126
10108
10113
10128
10139
10139
10136
10134
10131
10121
10107
10104
10125
10168
10212
10226
10196
10132
10064
10028
10038
10081
10127
10151
10153
10149
10157
10174
10187
10184
10167
10147
10128
10108
10085
10070
10076
10109
10153
10187
10199
10198
10196
10202
10213
10226
10238
10244
10230
10187
10126
10076
10064
10092
10136
10167
10178
10179
10179
10178
10172
10171
10190
10228
10254
10232
10163
10088
10057
10081
10124
10139
10114
10079
10066
10085
10115
10138
10152
10166
10177
10176
10160
10147
10155
10178
10187
10162
10121
10105
10141
10206
10243
10210
10119
10029
9998
10040
10121
10189
10210
10190
10155
10135
10138
10152
10160
10158
10150
10145
10144
10141
10133
10124
10123
10129
10132
10124
10108
10101
10112
10130
10139
10137
10135
10145
10161
10162
10138
10103
10089
10106
10137
10153
10139
10110
10085
10073
10066
10064
10075
10106
10142
10158
10140
10107
10095
10120
10165
10192
10181
10142
10099
10069
10056
10056
10073
10107
10149
10175
10174
10149
10118
10095
10083
10083
10099
10134
10175
10196
10177
10128
10083
10071
10094
10122
10128
10107
10075
10053
10054
10076
10113
10151
10172
10166
10141
10127
10151
10208
10251
10239
10168
10091
10064
10104
10172
10217
10223
10213
10215
10227
10226
10200
10169
10164
10189
10214
10210
10178
10149
10142
10144
10124
10079
10048
10074
10148
10213
10206
10124
10026
9984
10018
10092
10156
10186
10194
10197
10191
10166
10121
10075
10048
10045
10060
10083
10112
10139
10149
10128
10086
10053
10058
10102
10152
10176
10166
10143
10127
10120
10111
10098
10096
10122
10178
10250
10329
10421
10533
10656
10760
10821
10847
10873
10928
11008
11074
11084
11019
10887
10704
10488
10265
10072
9950
9908
9919
9934
9929
9920
9936
9984
10031
10041
10017
9999
10029
10101
10165
10179
10150
10127
10149
10204
10243
10226
10163
10095
10056
10048
10056
10074
10105
10147
10179
10178
10149
10118
10110
10119
10125
10122
10128
10162
10213
10244
10227
10170
10112
10081
10074
10075
10082
10105
10142
10173
10179
10173
10190
10246
10304
10309
10243
10155
10115
10146
10201
10218
10184
10142
10136
10163
10185
10181
10168
10178
10213
10240
10236
10218
10221
10256
10292
10294
10265
10245
10262
10301
10323
10308
10283
10286
10324
10369
10390
10380
10359
10342
10328
10317
10317
10344
10393
10436
10449
10436
10423
10429
10444
10445
10426
10407
10411
10437
10464
10477
10484
10502
10531
10555
10559
10548
10542
10550
10555
10533
10480
10414
10365
10347
10357
10386
10422
10454
10468
10456
10420
10374
10330
10294
10269
10262
10278
10308
10324
10304
10256
10208
10190
10195
10197
10180
10156
10157
10188
10223
10226
10193
10159
10156
10184
10207
10195
10158
10130
10138
10172
10205
10218
10220
10222
10225
10213
10179
10141
10129
10156
10208
10251
10258
10230
10190
10158
10141
10134
10126
10114
10104
10106
10125
10160
10196
10215
10209
10187
10168
10167
10179
10188
10182
10168
10162
10181
10218
10253
10263
10242
10199
10152
10115
10098
10103
10124
10152
10174
10181
10175
10169
10178
10207
10247
10278
10283
10259
10221
10190
10183
10197
10217
10226
10219
10202
10185
10175
10167
10160
10156
10161
10176
10193
10204
10205
10200
10192
10182
10169
10156
10148
10144
10132
10107
10078
10071
10101
10155
10193
10183
10133
10083
10071
10099
10136
10155
10158
10173
10214
10265
10288
10265
10212
10162
10138
10136
10139
10140
10144
10154
10166
10169
10160
10150
10153
10169
10186
10188
10170
10141
10119
10118
10140
10179
10216
10231
10217
10188
10170
10186
10228
10265
10261
10205
10122
10051
10025
10044
10081
10111
10128
10145
10177
10222
10260
10268
10244
10205
10173
10158
10154
10149
10139
10132
10136
10148
10163
10176
10188
10195
10188
10164
10134
10126
10154
10204
10240
10232
10189
10147
10139
10170
10210
10229
10219
10190
10165
10157
10167
10191
10217
10232
10225
10201
10177
10167
10171
10178
10180
10181
10196
10227
10260
10278
10277
10267
10260
10255
10245
10227
10210
10204
10207
10210
10209
10214
10232
10256
10263
10239
10193
10151
10129
10122
10114
10100
10091
10103
10134
10167
10187
10193
10195
10196
10192
10176
10153
10137
10137
10152
10177
10206
10238
10264
10268
10239
10183
10125
10091
10094
10125
10164
10196
10212
10206
10180
10145
10128
10156
10242
10371
10507
10618
10694
10750
10815
10905
11013
11111
11163
11152
11080
10970
10844
10713
10578
10434
10281
10121
9967
9841
9774
9785
9864
9964
10029
10039
10024
10036
10103
10198
10263
10262
10214
10172
10171
10201
10220
10202
10160
10127
10128
10157
10191
10212
10220
10225
10231
10235
10232
10223
10210
10195
10181
10170
10164
10164
10172
10195
10232
10273
10291
10268
10214
10169
10171
10219
10267
10267
10209
10136
10096
10102
10123
10134
10144
10182
10256
10326
10343
10302
10249
10236
10267
10291
10267
10210
10179
10213
10290
10348
10348
10308
10282
10299
10339
10362
10352
10325
10309
10313
10327
10338
10344
10350
10355
10355
10350
10350
10361
10376
10384
10382
10378
10383
10399
10420
10439
10458
10480
10502
10515
10516
10514
10516
10519
10516
10505
10499
10511
10533
10543
10526
10492
10477
10503
10562
10619
10640
10613
10553
10483
10430
10413
10436
10475
10497
10477
10432
10400
10406
10434
10443
10414
10367
10340
10345
10351
10326
10273
10233
10233
10260
10274
10254
10222
10216
10246
10289
10313
10315
10311
10302
10267
10189
10089
10026
10047
10143
10254
10318
10314
10265
10209
10172
10167
10194
10248
10304
10334
10320
10277
10239
10235
10262
10293
10299
10272
10223
10179
10157
10167
10193
10211
10200
10164
10133
10143
10199
10267
10305
10297
10267
10251
10266
10294
10310
10308
10299
10294
10289
10276
10257
10247
10257
10273
10277
10262
10245
10249
10270
10283
10265
10225
10195
10201
10231
10255
10253
10240
10241
10263
10278
10260
10214
10177
10182
10213
10226
10191
10131
10102
10144
10233
10304
10311
10263
10206
10181
10184
10191
10189
10192
10213
10246
10263
10246
10211
10191
10202
10228
10240
10227
10205
10201
10220
10245
10254
10245
10227
10216
10217
10225
10232
10229
10215
10196
10189
10212
10264
10320
10347
10328
10279
10232
10208
10207
10218
10233
10253
10271
10272
10245
10204
10176
10184
10220
10254
10261
10239
10204
10173
10151
10141
10146
10168
10194
10202
10180
10142
10117
10125
10157
10187
10197
10189
10175
10166
10165
10173
10198
10242
10294
10331
10338
10315
10275
10227
10175
10132
10120
10152
10216
10271
10279
10244
10201
10190
10216
10248
10255
10229
10193
10170
10170
10186
10207
10224
10230
10221
10203
10194
10208
10240
10260
10241
10188
10133
10114
10135
10168
10189
10199
10219
10259
10306
10329
10319
10294
10275
10266
10247
10207
10161
10145
10177
10238
10285
10287
10251
10211
10199
10217
10247
10264
10255
10224
10184
10152
10140
10145
10155
10152
10134
10113
10107
10117
10131
10138
10144
10163
10193
10209
10181
10110
10040
10023
10069
10136
10174
10169
10152
10163
10202
10231
10217
10166
10124
10130
10184
10258
10328
10398
10489
10608
10739
10851
10929
10978
11012
11041
11061
11058
11017
10929
10797
10636
10468
10310
10172
10059
9975
9929
9920
9935
9958
9983
10021
10077
10140
10185
10193
10175
10156
10154
10161
10156
10134
10109
10099
10103
10110
10115
10131
10174
10239
10296
10317
10296
10252
10199
10144
10092
10064
10091
10176
10277
10335
10315
10239
10161
10119
10116
10131
10146
10162
10179
10188
10184
10175
10182
10213
10248
10251
10211
10157
10129
10143
10176
10194
10187
10176
10190
10228
10264
10267
10237
10197
10174
10182
10213
10256
10298
10325
10325
10295
10251
10221
10224
10254
10287
10301
10294
10280
10276
10281
10287
10295
10311
10341
10370
10374
10340
10294
10284
10342
10446
10533
10542
10471
10372
10311
10321
10381
10447
10491
10511
10516
10514
10503
10491
10492
10511
10534
10537
10508
10467
10443
10452
10475
10483
10468
10448
10450
10476
10500
10496
10459
10413
10384
10376
10374
10361
10340
10321
10314
10315
10312
10304
10298
10297
10295
10284
10264
10246
10246
10264
10280
10273
10238
10191
10159
10158
10186
10221
10239
10227
10188
10142
10115
10124
10166
10217
10253
10261
10245
10216
10181
10146
10122
10123
10150
10183
10189
10156
10109
10093
10134
10211
10272
10283
10254
10222
10212
10214
10204
10175
10148
10147
10173
10205
10220
10215
10197
10175
10153
10140
10155
10203
10265
10299
10283
10235
10199
10201
10226
10241
10234
10222
10223
10227
10206
10157
10116
10124
10180
10229
10217
10152
10099
10119
10206
10292
10311
10260
10185
10137
10130
10145
10168
10199
10239
10273
10273
10235
10183
10153
10164
10204
10247
10273
10275
10254
10217
10178
10155
10158
10174
10179
10162
10134
10123
10140
10170
10185
10174
10151
10139
10149
10171
10195
10213
10226
10232
10225
10205
10183
10173
10179
10193
10199
10191
10174
10155
10142
10140
10156
10191
10230
10251
10237
10195
10153
10135
10140
10146
10133
10102
10081
10096
10154
10225
10271
10266
10217
10156
10113
10103
10111
10119
10119
10120
10131
10151
10165
10165
10158
10168
10203
10249
10278
10271
10230
10179
10145
10144
10178
10227
10257
10234
10149
10041
9975
10000
10103
10222
10291
10290
10247
10201
10170
10144
10117
10100
10109
10140
10173
10191
10198
10206
10215
10212
10185
10141
10105
10090
10090
10093
10105
10139
10196
10247
10259
10226
10178
10151
10156
10174
10189
10204
10232
10270
10290
10277
10246
10238
10272
10320
10334
10290
10213
10156
10147
10177
10215
10242
10254
10252
10228
10179
10117
10071
10061
10085
10119
10142
10147
10144
10146
10154
10165
10170
10165
10148
10124
10101
10084
10075
10071
10074
10091
10122
10157
10175
10171
10158
10161
10185
10203
10186
10132
10078
10065
10103
10166
10225
10282
10364
10490
10642
10778
10863
10900
10920
10956
11017
11085
11123
11097
10986
10798
10570
10353
10189
10089
10037
10009
9990
9972
9952
9934
9931
9955
10005
10064
10105
10121
10127
10139
10154
10153
10127
10096
10097
10144
10207
10239
10214
10151
10096
10082
10108
10151
10186
10202
10198
10181
10160
10148
10151
10159
10159
10145
10129
10130
10148
10168
10178
10182
10198
10227
10250
10242
10204
10164
10155
10180
10211
10222
10210
10196
10196
10205
10206
10189
10169
10166
10185
10208
10216
10201
10177
10169
10185
10213
10234
10233
10218
10208
10215
10233
10245
10242
10236
10241
10261
10275
10266
10242
10238
10277
10344
10395
10402
10379
10364
10374
10385
10365
10316
10281
10297
10358
10417
10437
10427
10428
10455
10485
10481
10438
10387
10364
10373
10391
10404
10424
10469
10529
10567
10555
10499
10437
10400
10389
10389
10396
10423
10474
10527
10547
10519
10464
10418
10400
10397
10387
10361
10330
10309
10300
10292
10280
10268
10265
10270
10275
10270
10252
10227
10201
10178
10161
10150
10145
10141
10136
10134
10141
10160
10188
10210
10213
10193
10162
10141
10142
10164
10191
10205
10197
10173
10143
10119
10104
10098
10106
10127
10154
10173
10172
10155
10137
10129
10133
10142
10155
10182
10225
10268
10278
10236
10158
10090
10072
10105
10156
10187
10185
10167
10159
10175
10205
10231
10235
10213
10173
10130
10100
10090
10096
10107
10121
10136
10155
10174
10183
10185
10189
10209
10240
10259
10246
10199
10143
10111
10113
10138
10161
10167
10161
10154
10161
10186
10223
10258
10275
10265
10231
10189
10151
10126
10112
10110
10119
10137
10153
10156
10149
10145
10159
10186
10206
10203
10182
10168
10178
10205
10221
10204
10162
10121
10108
10130
10170
10203
10210
10191
10163
10149
10163
10196
10216
10200
10153
10108
10101
10133
10173
10183
10158
10123
10109
10123
10142
10141
10116
10088
10079
10095
10123
10148
10166
10177
10184
10184
10175
10162
10160
10176
10206
10230
10230
10206
10180
10178
10207
10242
10246
10206
10145
10105
10108
10137
10154
10139
10108
10094
10107
10129
10129
10103
10078
10090
10143
10209
10245
10232
10181
10126
10094
10092
10115
10150
10189
10219
10230
10214
10181
10157
10169
10220
10276
10296
10259
10197
10160
10174
10213
10221
10172
10095
10047
10056
10096
10122
10118
10110
10125
10160
10183
10179
10173
10199
10252
10287
10268
10211
10178
10210
10282
10329
10310
10246
10187
10160
10149
10128
10098
10086
10108
10147
10177
10188
10195
10207
10211
10189
10149
10125
10143
10186
10206
10167
10084
10010
9989
10022
10079
10130
10166
10190
10206
10211
10201
10177
10143
10108
10084
10082
10104
10128
10130
10099
10062
10056
10100
10174
10241
10286
10329
10399
10504
10617
10709
10773
10828
10896
10978
11055
11103
11104
11051
10944
10794
10621
10448
10292
10158
10044
9950
9879
9834
9815
9825
9873
9957
10059
10145
10187
10184
10164
10157
10169
10186
10188
10172
10153
10148
10160
10177
10185
10175
10149
10126
10125
10154
10198
10223
10206
10157
10113
10107
10139
10178
10195
10187
10177
10180
10189
10186
10169
10158
10170
10195
10202
10178
10138
10119
10139
10181
10212
10214
10199
10188
10194
10210
10224
10234
10245
10260
10270
10267
10251
10234
10230
10240
10252
10255
10245
10233
10232
10241
10247
10237
10214
10196
10203
10237
10279
10303
10305
10301
10309
10332
10349
10343
10322
10309
10319
10342
10356
10351
10345
10361
10405
10454
10479
10470
10448
10437
10444
10457
10456
10440
10424
10429
10459
10500
10528
10531
10517
10508
10520
10546
10562
10543
10493
10444
10426
10449
10491
10523
10531
10518
10497
10470
10443
10426
10434
10467
10497
10487
10423
10327
10242
10199
10197
10212
10225
10233
10242
10256
10267
10270
10266
10263
10266
10274
10273
10249
10200
10137
10089
10087
10136
10209
10262
10268
10232
10186
10152
10135
10124
10120
10132
10165
10204
10229
10232
10229
10236
10248
10245
10215
10173
10143
10135
10134
10131
10135
10163
10207
10232
10209
10153
10117
10136
10190
10219
10190
10131
10100
10125
10175
10203
10199
10197
10225
10269
10284
10248
10187
10149
10156
10181
10191
10182
10179
10193
10206
10191
10151
10124
10146
10206
10257
10263
10232
10203
10203
10221
10229
10217
10204
10209
10234
10254
10252
10229
10202
10182
10165
10145
10124
10112
10113
10119
10123
10125
10131
10141
10147
10140
10129
10131
10156
10191
10209
10196
10164
10137
10129
10136
10147
10162
10189
10230
10269
10279
10252
10201
10155
10131
10128
10132
10138
10150
10166
10177
10168
10141
10120
10133
10186
10257
10306
10307
10261
10196
10140
10108
10102
10112
10124
10130
10123
10107
10093
10093
10114
10150
10188
10212
10214
10198
10173
10144
10117
10097
10095
10122
10173
10221
10236
10206
10149
10108
10111
10151
10191
10197
10165
10122
10099
10106
10129
10151
10167
10181
10194
10200
10192
10175
10160
10154
10155
10155
10154
10156
10163
10170
10168
10161
10161
10177
10206
10231
10235
10216
10185
10155
10136
10132
10143
10162
10177
10179
10172
10170
10184
10205
10207
10178
10136
10114
10134
10179
10216
10229
10233
10252
10283
10294
10250
10163
10080
10055
10099
10176
10239
10265
10259
10235
10198
10149
10099
10070
10083
10135
10195
10227
10216
10175
10137
10125
10143
10176
10197
10190
10154
10106
10074
10074
10105
10145
10166
10156
10124
10098
10094
10106
10111
10089
10049
10021
10031
10073
10117
10136
10137
10156
10219
10313
10396
10435
10441
10462
10536
10665
10811
10938
11033
11105
11160
11186
11161
11073
10930
10751
10555
10356
10171
10015
9900
9836
9825
9864
9938
10016
10066
10075
10060
10054
10075
10111
10133
10130
10115
10110
10119
10125
10118
10111
10129
10177
10230
10251
10231
10194
10175
10181
10195
10194
10181
10171
10171
10167
10146
10116
10097
10107
10136
10168
10192
10215
10239
10249
10228
10181
10143
10147
10188
10222
10207
10146
10083
10063
10093
10145
10191
10223
10242
10244
10219
10171
10129
10133
10190
10267
10316
10311
10266
10216
10184
10174
10180
10193
10202
10200
10187
10181
10206
10267
10335
10366
10343
10291
10258
10266
10295
10308
10294
10279
10298
10351
10408
10438
10436
10425
10423
10425
10414
10386
10360
10355
10375
10407
10438
10473
10518
10563
10581
10550
10480
10418
10409
10463
10541
10586
10570
10509
10453
10437
10458
10484
10488
10471
10456
10455
10463
10460
10443
10425
10419
10415
10387
10328
10267
10249
10288
10352
10386
10370
10330
10314
10331
10345
10314
10233
10148
10112
10135
10187
10224
10227
10207
10184
10171
10172
10190
10220
10243
10235
10186
10117
10075
10092
10160
10235
10273
10262
10223
10191
10185
10202
10223
10237
10240
10235
10225
10208
10185
10161
10153
10174
10219
10263
10281
10266
10233
10206
10195
10195
10201
10221
10263
10315
10339
10304
10218
10130
10089
10107
10149
10178
10185
10188
10201
10214
10207
10175
10144
10139
10165
10202
10233
10256
10277
10292
10290
10269
10242
10224
10217
10209
10196
10197
10239
10318
10389
10399
10329
10217
10124
10090
10113
10165
10218
10257
10275
10267
10235
10197
10175
10184
10220
10259
10272
10243
10173
10087
10027
10025
10086
10174
10237
10248
10221
10197
10201
10225
10245
10247
10236
10222
10200
10167
10138
10146
10207
10291
10338
10316
10249
10195
10186
10202
10198
10165
10138
10160
10225
10283
10288
10249
10213
10215
10242
10249
10215
10160
10118
10101
10095
10086
10086
10116
10172
10221
10222
10174
10115
10089
10112
10161
10208
10238
10254
10260
10253
10237
10225
10228
10243
10252
10238
10205
10178
10174
10189
10201
10199
10193
10205
10242
10287
10309
10292
10242
10183
10141
10131
10149
10182
10212
10225
10217
10202
10194
10209
10243
10279
10293
10269
10215
10162
10149
10197
10286
10366
10394
10366
10316
10281
10276
10284
10282
10268
10249
10224
10177
10102
10029
10008
10067
10180
10276
10303
10263
10203
10168
10164
10175
10187
10201
10220
10234
10229
10213
10212
10243
10289
10313
10293
10246
10211
10203
10206
10195
10168
10150
10156
10171
10166
10137
10110
10117
10155
10189
10189
10160
10137
10145
10179
10221
10269
10342
10451
10577
10680
10734
10749
10765
10819
10916
11033
11133
11179
11146
11026
10835
10616
10414
10259
10152
10074
10007
9952
9929
9956
10033
10133
10214
10242
10217
10171
10139
10140
10157
10170
10174
10184
10215
10256
10279
10267
10235
10213
10217
10230
10227
10203
10183
10191
10229
10271
10290
10280
10256
10235
10220
10212
10211
10221
10241
10257
10258
10243
10221
10201
10185
10173
10167
10173
10192
10218
10245
10270
10294
10311
10315
10306
10294
10293
10303
10306
10283
10238
10194
10173
10178
10197
10218
10244
10284
10332
10370
10382
10370
10350
10337
10332
10328
10323
10320
10317
10309
10295
10287
10298
10327
10352
10352
10329
10312
10332
10392
10463
10511
10519
10495
10459
10426
10410
10422
10463
10517
10560
10570
10547
10510
10474
10446
10427
10422
10444
10494
10551
10585
10585
10564
10555
10574
10613
10642
10637
10595
10533
10479
10452
10459
10487
10511
10505
10461
10393
10331
10304
10323
10376
10434
10469
10464
10426
10376
10336
10311
10293
10273
10253
10247
10260
10280
10290
10281
10261
10248
10249
10254
10251
10233
10203
10171
10148
10148
10179
10231
10274
10279
10243
10202
10196
10229
10266
10265
10227
10196
10211
10266
10314
10315
10275
10231
10213
10215
10213
10201
10192
10202
10222
10239
10247
10261
10289
10316
10317
10282
10235
10209
10216
10243
10269
10286
10298
10302
10291
10263
10240
10241
10266
10285
10276
10248
10230
10236
10246
10228
10186
10156
10175
10237
10292
10303
10274
10245
10245
10263
10267
10246
10218
10209
10225
10252
10270
10273
10259
10222
10160
10094
10063
10097
10184
10275
10323
10317
10284
10253
10230
10204
10172
10152
10165
10209
10256
10274
10256
10224
10211
10231
10273
10311
10325
10316
10293
10267
10236
10201
10168
10152
10164
10188
10195
10163
10109
10077
10107
10191
10280
10324
10311
10269
10235
10220
10210
10197
10189
10200
10225
10233
10202
10141
10092
10091
10139
10201
10243
10254
10245
10229
10213
10195
10183
10187
10210
10238
10253
10248
10232
10222
10225
10237
10249
10255
10254
10247
10230
10198
10158
10132
10141
10189
10249
10283
10269
10220
10178
10179
10219
10257
10251
10192
10115
10068
10076
10129
10193
10242
10265
10270
10264
10256
10251
10252
10256
10259
10263
10274
10298
10323
10327
10291
10231
10186
10191
10247
10313
10342
10318
10263
10216
10196
10195
10192
10178
10160
10154
10163
10179
10188
10190
10190
10196
10203
10200
10182
10152
10129
10128
10151
10186
10219
10238
10242
10231
10213
10195
10189
10199
10220
10230
10214
10172
10121
10086
10080
10107
10155
10207
10238
10230
10183
10127
10109
10155
10250
10349
10421
10476
10547
10653
10774
10874
10939
10988
11046
11103
11120
11059
10921
10745
10568
10407
10258
10123
10016
9950
9926
9931
9955
9991
10037
10082
10120
10150
10180
10208
10222
10213
10193
10185
10200
10215
10197
10140
10080
10067
10117
10196
10255
10267
10242
10203
10158
10109
10071
10066
10102
10154
10180
10165
10131
10116
10140
10188
10233
10256
10257
10235
10192
10143
10119
10141
10196
10237
10228
10182
10153
10179
10247
10309
10325
10303
10277
10266
10262
10245
10221
10211
10230
10260
10271
10251
10215
10193
10198
10223
10251
10278
10306
10333
10352
10352
10328
10288
10244
10212
10208
10236
10285
10327
10339
10323
10306
10316
10362
10421
10464
10474
10456
10431
10418
10423
10441
10454
10444
10407
10363
10340
10354
10392
10427
10442
10448
10467
10502
10531
10527
10494
10465
10475
10525
10582
10607
10588
10544
10502
10478
10472
10479
10494
10509
10511
10490
10445
10390
10345
10325
10332
10356
10377
10376
10344
10292
10244
10221
10230
10254
10272
10269
10247
10214
10177
10141
10107
10084
10077
10092
10129
10182
10235
10266
10260
10222
10182
10173
10200
10237
10245
10210
10155
10121
10129
10162
10188
10185
10162
10141
10136
10142
10144
10135
10122
10117
10129
10154
10176
10179
10161
10137
10130
10150
10180
10191
10167
10127
10106
10126
10174
10213
10221
10206
10191
10191
10196
10193
10181
10174
10181
10198
10208
10209
10210
10220
10234
10236
10220
10200
10194
10207
10221
10214
10185
10154
10145
10160
10184
10197
10190
10170
10143
10117
10102
10111
10148
10204
10249
10256
10223
10174
10140
10134
10141
10140
10124
10107
10110
10135
10167
10186
10185
10173
10166
10168
10169
10161
10143
10128
10128
10143
10167
10189
10205
10212
10207
10189
10162
10140
10136
10149
10165
10165
10146
10125
10123
10145
10178
10200
10197
10172
10139
10106
10077
10057
10054
10074
10111
10148
10169
10174
10175
10184
10194
10188
10158
10121
10109
10137
10189
10228
10230
10200
10166
10150
10145
10133
10102
10068
10054
10075
10125
10181
10220
10228
10202
10150
10100
10082
10113
10175
10228
10238
10203
10157
10133
10137
10148
10147
10132
10121
10123
10132
10136
10135
10138
10157
10183
10201
10197
10174
10138
10099
10068
10061
10096
10164
10234
10264
10238
10187
10158
10176
10222
10255
10250
10218
10184
10160
10142
10123
10113
10133
10187
10251
10289
10284
10248
10209
10183
10166
10154
10152
10166
10190
10202
10178
10127
10084
10087
10133
10183
10190
10140
10066
10013
10008
10040
10087
10133
10178
10218
10234
10209
10145
10077
10039
10041
10060
10068
10059
10055
10073
10110
10141
10157
10170
10204
10266
10338
10402
10467
10555
10673
10793
10874
10899
10899
10921
10979
11033
11024
10921
10746
10550
10367
10204
10056
9932
9860
9857
9909
9978
10029
10053
10059
10062
10066
10071
10081
10098
10117
10124
10109
10083
10068
10083
10117
10142
10138
10108
10078
10069
10082
10100
10114
10125
10141
10160
10171
10167
10153
10144
10151
10171
10192
10209
10216
10207
10177
10128
10082
10068
10099
10158
10211
10231
10220
10196
10175
10158
10142
10131
10138
10160
10178
10172
10143
10118
10124
10161
10196
10199
10165
10129
10130
10182
10262
10329
10349
10317
10254
10192
10161
10171
10213
10263
10290
10281
10244
10202
10184
10203
10249
10298
10331
10344
10344
10336
10314
10275
10227
10200
10222
10290
10364
10400
10382
10342
10325
10351
10406
10459
10491
10499
10486
10449
10392
10346
10346
10406
10493
10556
10564
10533
10499
10483
10479
10470
10461
10463
10476
10478
10449
10396
10358
10359
10389
10406
10385
10339
10304
10298
10309
10307
10287
10262
10254
10261
10266
10249
10208
10154
10106
10079
10080
10106
10138
10156
10151
10135
10127
10133
10142
10137
10115
10085
10063
10053
10059
10086
10139
10203
10249
10248
10206
10157
10132
10130
10124
10097
10068
10071
10123
10194
10237
10224
10176
10131
10115
10122
10130
10126
10113
10106
10111
10126
10138
10138
10128
10120
10124
10141
10154
10151
10135
10132
10163
10218
10257
10248
10195
10140
10116
10121
10126
10112
10096
10108
10153
10198
10204
10167
10119
10095
10097
10099
10079
10047
10029
10045
10092
10150
10200
10228
10221
10178
10115
10067
10059
10094
10144
10180
10192
10188
10181
10172
10161
10153
10158
10177
10192
10185
10151
10109
10080
10072
10080
10094
10110
10126
10138
10136
10119
10096
10080
10075
10077
10081
10088
10102
10123
10142
10151
10148
10135
10111
10081
10056
10050
10071
10107
10131
10123
10091
10063
10064
10095
10137
10171
10183
10173
10147
10115
10093
10094
10117
10139
10139
10118
10097
10102
10130
10151
10134
10079
10018
9993
10019
10080
10138
10164
10152
10115
10078
10061
10070
10096
10123
10136
10129
10108
10082
10058
10044
10045
10065
10099
10135
10159
10162
10142
10110
10078
10056
10048
10047
10043
10035
10036
10061
10109
10157
10176
10157
10123
10105
10116
10135
10137
10118
10099
10104
10126
10138
10118
10075
10042
10042
10073
10116
10158
10198
10234
10251
10235
10185
10128
10092
10086
10095
10098
10088
10071
10055
10045
10042
10051
10074
10100
10111
10092
10050
10013
10007
10035
10078
10108
10108
10078
10031
9988
9969
9984
10026
10071
10097
10094
10073
10051
10038
10034
10038
10054
10080
10103
10102
10066
10012
9975
9981
10023
10073
10108
10130
10165
10235
10341
10464
10575
10656
10712
10758
10819
10905
11001
11067
11060
10958
10780
10572
10374
10202
10054
9926
9828
9772
9758
9777
9815
9866
9922
9969
9990
9983
9969
9978
10022
10078
10115
10118
10100
10083
10071
10050
10014
9982
9984
10026
10081
10115
10117
10106
10100
10092
10062
10008
9960
9958
10005
10064
10089
10072
10039
10024
10030
10041
10046
10057
10087
10123
10132
10094
10029
9984
9989
10033
10081
10110
10125
10137
10143
10131
10099
10069
10074
10121
10183
10215
10197
10144
10094
10076
10096
10140
10188
10226
10241
10226
10183
10126
10082
10075
10111
10168
10208
10207
10172
10136
10132
10163
10204
10228
10228
10223
10229
10243
10250
10246
10247
10272
10314
10344
10334
10290
10247
10241
10276
10333
10388
10429
10452
10451
10421
10372
10330
10319
10342
10380
10415
10441
10466
10490
10501
10484
10447
10411
10393
10390
10382
10359
10331
10314
10316
10326
10329
10316
10288
10249
10210
10181
10172
10182
10192
10186
10156
10121
10101
10103
10116
10125
10127
10131
10140
10146
10135
10104
10066
10041
10039
10056
10081
10104
10117
10116
10100
10076
10053
10037
10031
10032
10041
10056
10070
10073
10059
10040
10034
10048
10073
10085
10071
10035
9999
9980
9986
10014
10061
10112
10147
10148
10112
10059
10021
10017
10047
10091
10120
10117
10077
10017
9972
9973
10026
10100
10154
10166
10152
10144
10153
10161
10146
10107
10069
10054
10054
10050
10037
10036
10064
10110
10138
10122
10076
10037
10030
10048
10072
10094
10125
10162
10182
10156
10088
10014
9975
9979
10007
10037
10070
10112
10156
10175
10153
10105
10068
10062
10077
10088
10087
10085
10093
10107
10111
10100
10088
10089
10098
10096
10070
10034
10014
10029
10072
10120
10153
10157
10128
10073
10013
9980
9997
10054
10110
10123
10084
10024
9984
9987
10025
10074
10116
10142
10150
10135
10099
10057
10031
10041
10080
10122
10134
10105
10056
10020
10020
10045
10068
10066
10047
10041
10067
10113
10146
10143
10114
10085
10075
10070
10048
10008
9973
9971
10007
10058
10100
10125
10138
10143
10131
10096
10050
10021
10029
10071
10122
10158
10163
10136
10085
10030
9998
10007
10046
10077
10070
10030
10001
10018
10071
10115
10112
10069
10033
10036
10071
10101
10105
10090
10082
10089
10097
10091
10076
10071
10087
10115
10137
10140
10129
10111
10093
10078
10072
10081
10101
10120
10126
10122
10118
10124
10137
10151
10165
10180
10189
10180
10144
10098
10072
10082
10107
10107
10066
10010
9984
10012
10071
10121
10143
10147
10152
10151
10128
10080
10035
10027
10058
10099
10114
10099
10082
10083
10100
10108
10094
10072
10060
10060
10055
10034
10005
9987
9993
10014
10035
10048
10058
10069
10076
10082
10097
10140
10215
10308
10401
10496
10611
10756
10910
11029
11084
11085
11063
11031
10971
10850
10666
10453
10258
10105
9991
9903
9844
9823
9838
9864
9875
9868
9869
9908
9989
10082
10148
10164
10138
10097
10066
10059
10074
10098
10114
10112
10093
10069
10052
10047
10049
10048
10038
10029
10032
10054
10091
10129
10154
10163
10164
10166
10172
10171
10152
10118
10086
10077
10097
10130
10152
10146
10121
10092
10075
10072
10080
10099
10128
10160
10180
10175
10151
10127
10119
10126
10134
10130
10116
10101
10094
10094
10097
10107
10135
10184
10240
10279
10286
10263
10230
10203
10190
10191
10199
10208
10214
10214
10211
10213
10226
10247
10269
10286
10300
10315
10330
10334
10322
10299
10283
10288
10309
10331
10342
10346
10359
10385
10418
10440
10444
10438
10427
10415
10398
10382
10383
10410
10452
10485
10489
10467
10444
10440
10452
10460
10448
10424
10402
10389
10377
10360
10344
10348
10378
10414
10418
10373
10291
10214
10176
10183
10215
10245
10258
10255
10243
10230
10220
10213
10205
10186
10152
10108
10073
10064
10080
10106
10119
10115
10107
10117
10150
10191
10213
10200
10165
10134
10128
10142
10153
10138
10099
10057
10036
10042
10060
10074
10077
10081
10096
10124
10152
10169
10175
10172
10168
10160
10144
10121
10092
10066
10050
10054
10082
10132
10188
10228
10238
10222
10193
10164
10142
10129
10130
10145
